100	717.58014
100.99532	739.95197
101.99063	708.74261
102.98595	713.49127
103.98126	716.8559
104.97658	716.13739
105.97189	728.96698
106.96722	709.29553
107.96253	710.17664
108.95785	713.1936
109.95316	704.38788
110.94848	706.03827
111.94379	719.72522
112.93911	723.15918
113.93443	716.9541
114.92974	715.4552
115.92506	713.01508
116.92037	709.74591
117.91569	707.28528
118.91101	702.77649
119.90633	704.95801
120.90164	719.94482
121.89696	717.99017
122.89227	703.8446
123.88759	704.87592
124.8829	698.6098
125.87822	696.9256
126.87354	688.95001
127.86885	672.46014
128.86417	676.04138
129.85948	668.01984
130.8548	666.99219
131.85011	670.41998
132.84543	664.08807
133.84074	628.75397
134.83606	626.05267
135.83138	636.32416
136.82669	634.39093
137.82202	619.69904
138.81734	628.03369
139.81265	625.7948
140.80797	616.75848
141.80328	610.62616
142.7986	616.3454
143.79391	614.56744
144.78923	613.16919
145.78455	615.25629
146.77986	602.65454
147.77518	620.63611
148.77049	619.37567
149.76581	606.3764
150.76112	605.06354
151.75644	609.75555
152.75175	600.15741
153.74707	584.83765
154.74239	569.85114
155.7377	577.97052
156.73302	582.55743
157.72833	578.0047
158.72365	577.9259
159.71896	592.78558
160.71428	581.40839
161.70959	581.98523
162.70493	584.19806
163.70024	582.37592
164.69556	565.48895
165.69087	572.59149
166.68619	584.15808
167.6815	584.33368
168.67682	573.5047
169.67213	576.95374
170.66745	561.53918
171.66277	568.27692
172.65808	577.99231
173.6534	564.33453
174.64871	571.8584
175.64403	570.79163
176.63934	566.90491
177.63466	570.94495
178.62997	567.48688
179.62529	581.26746
180.62061	574.65887
181.61592	571.41418
182.61124	583.73273
183.60655	577.33771
184.60187	565.64923
185.59718	566.48468
186.5925	572.44525
187.58783	558.38751
188.58315	569.91211
189.57846	577.53284
190.57378	574.77875
191.56909	564.77881
192.56441	574.88208
193.55972	563.48273
194.55504	569.89673
195.55035	580.60803
196.54567	578.55975
197.54099	583.94788
198.5363	595.09521
199.53162	589.91461
200.52693	576.99017
201.52225	581.68604
202.51756	584.93451
203.51288	580.13507
204.50819	578.60052
205.50351	585.43011
206.49883	590.11029
207.49414	584.2171
208.48946	589.44586
209.48477	598.16974
210.48009	594.17139
211.4754	595.21698
212.47072	595.73041
213.46605	595.13464
214.46136	596.87689
215.45668	589.51813
216.452	613.16193
217.44731	609.40625
218.44263	600.4071
219.43794	592.59662
220.43326	588.75458
221.42857	600.52789
222.42389	599.80859
223.4192	596.70831
224.41452	607.98944
225.40984	603.88269
226.40515	612.41315
227.40047	618.69507
228.39578	616.49512
229.3911	609.56226
230.38641	635.92963
231.38173	620.31342
232.37704	605.41516
233.37236	610.23962
234.36768	615.81958
235.36299	615.30725
236.35831	622.93146
237.35362	621.16541
238.34895	596.42395
239.34427	604.55573
240.33958	617.92432
241.3349	616.16003
242.33022	610.15143
243.32553	599.50873
244.32085	595.22351
245.31616	592.05585
246.31148	588.90253
247.30679	591.59796
248.30211	615.79565
249.29742	606.00031
250.29274	601.90674
251.28806	599.2821
252.28337	597.9115
253.27869	583.80902
254.274	576.66162
255.26932	583.97021
256.26465	588.5932
257.25995	590.98907
258.25528	576.69617
259.25058	586.76434
260.24591	581.39227
261.24121	578.38452
262.23654	577.72736
263.23184	570.85419
264.22717	579.73285
265.22247	570.32159
266.2178	561.63495
267.2131	566.81427
268.20844	579.0462
269.20374	575.55579
270.19907	566.54285
271.19437	552.44171
272.1897	559.60193
273.185	551.03461
274.18033	568.50494
275.17566	565.4939
276.17096	554.50525
277.16629	564.81689
278.16159	568.44861
279.15692	561.78748
280.15222	563.06854
281.14755	567.20575
282.14285	562.14594
283.13818	567.99066
284.13348	572.12018
285.12881	560.04047
286.12411	559.16119
287.11945	558.73352
288.11475	564.04169
289.11008	563.8703
290.10538	555.87952
291.10071	549.26886
292.09601	558.42291
293.09134	543.79572
294.08664	558.8512
295.08197	563.4433
296.07727	544.29443
297.0726	537.64307
298.0679	541.63177
299.06323	548.05353
300.05856	555.89105
301.05386	544.83765
302.04919	534.9895
303.04449	537.9093
304.03983	539.92651
305.03513	537.52008
306.03046	530.54755
307.02576	546.69446
308.02109	535.16956
309.01639	534.64661
310.01172	548.99597
311.00702	543.90796
312.00235	534.31116
312.99765	543.00708
313.99298	553.66278
314.98828	544.46826
315.98361	543.4646
316.97891	543.86444
317.97424	541.21387
318.96954	546.49689
319.96487	553.73737
320.96017	560.03473
321.95551	554.16595
322.95081	535.1731
323.94614	535.71216
324.94144	547.17883
325.93677	554.31793
326.9321	549.04498
327.9274	538.91833
328.92273	546.42267
329.91803	560.6344
330.91336	547.64233
331.90866	548.81433
332.90399	549.58508
333.89929	547.86401
334.89462	546.06915
335.88992	535.73962
336.88525	550.11237
337.88055	558.47864
338.87589	551.01001
339.87119	548.94031
340.86652	539.54932
341.86182	559.44421
342.85715	545.87427
343.85245	550.76978
344.84778	559.31476
345.84308	571.36249
346.83841	574.82263
347.83371	563.25757
348.82904	560.27551
349.82434	553.41345
350.81967	558.55469
351.815	566.00409
352.8103	567.20966
353.80563	566.54211
354.80093	564.9137
355.79626	553.14355
356.79156	559.04907
357.7869	586.02039
358.7822	587.06018
359.77753	572.4422
360.77283	563.03711
361.76816	552.44934
362.76346	552.53271
363.75879	568.45349
364.75409	565.21246
365.74942	554.95642
366.74472	550.41254
367.74005	570.01166
368.73535	558.97345
369.73068	534.77618
370.72598	545.26306
371.72131	561.04517
372.71661	553.73822
373.71194	550.42914
374.70724	548.42603
375.70258	550.0661
376.69791	549.33771
377.69321	554.16095
378.68854	557.85016
379.68384	554.4599
380.67917	542.33698
381.67447	537.03052
382.6698	541.76971
383.6651	543.91577
384.66043	546.37207
385.65573	544.99738
386.65106	536.55444
387.64636	534.76105
388.64169	529.58899
389.63699	536.02863
390.63232	534.48291
391.62762	544.06665
392.62296	534.2207
393.61826	538.83002
394.61359	539.74475
395.60889	535.24548
396.60422	541.85455
397.59952	539.32813
398.59485	531.26862
399.59015	533.99463
400.58548	529.49524
401.58081	537.47522
402.57611	537.46204
403.57144	530.96814
404.56674	522.40265
405.56207	523.44824
406.55737	528.15649
407.5527	513.50311
408.548	514.18604
409.54333	526.80005
410.53864	532.35693
411.53397	514.96466
412.52927	528.53217
413.5246	516.6424
414.5199	513.36768
415.51523	512.76251
416.51053	521.26801
417.50586	522.00482
418.50116	522.09515
419.49649	526.65698
420.49179	534.41254
421.48712	525.31372
422.48242	528.46954
423.47775	520.26349
424.47305	509.71716
425.46838	514.12915
426.46371	513.03882
427.45901	536.4967
428.45435	513.7074
429.44965	511.58545
430.44498	522.24982
431.44028	519.15149
432.43561	512.59375
433.43091	508.19266
434.42624	515.44598
435.42154	517.27759
436.41687	509.66397
437.41217	499.65536
438.4075	514.17474
439.4028	508.72534
440.39813	512.17218
441.39343	513.51892
442.38876	517.03729
443.38406	514.95789
444.37939	517.90234
445.37469	519.84186
446.37003	522.73669
447.36533	530.17657
448.36066	512.80212
449.35596	510.24146
450.35129	513.73901
451.34662	509.7717
452.34192	509.18723
453.33725	506.14508
454.33255	512.87079
455.32788	526.66412
456.32318	520.448
457.31851	514.22876
458.31381	509.06354
459.30914	504.44025
460.30444	505.54391
461.29977	507.83142
462.29507	512.77789
463.29041	517.85419
464.28571	500.03613
465.28104	513.81384
466.27634	511.69598
467.27167	508.85141
468.26697	516.99127
469.2623	516.30304
470.2576	515.62366
471.25293	511.8165
472.24823	517.01544
473.24356	522.96069
474.23886	521.56421
475.23419	504.11392
476.22952	511.18118
477.22482	519.34503
478.22015	520.3476
479.21545	510.12549
480.21078	521.31384
481.20609	517.42352
482.20142	524.36401
483.19672	514.92999
484.19205	511.06689
485.18735	517.62177
486.18268	523.79297
487.17798	517.38434
488.17331	510.02191
489.16861	513.3186
490.16394	513.95428
491.15924	503.87439
492.15457	508.96896
493.14987	507.17459
494.1452	501.49356
495.1405	504.26434
496.13583	508.69479
497.13113	516.1687
498.12646	512.65601
499.12177	509.78574
500.1171	504.97809
501.11243	501.57556
502.10773	511.34103
503.10306	520.02405
504.09836	521.32648
505.09369	515.07397
506.08899	516.37683
507.08432	520.54889
508.07962	504.98871
509.07495	508.32678
510.07025	507.11316
511.06558	504.88995
512.06091	504.94342
513.05621	518.92072
514.05151	513.39215
515.04681	512.43707
516.04218	506.49622
517.03748	506.2395
518.03278	508.92804
519.02808	512.67822
520.02344	506.58453
521.01874	502.63745
522.01404	502.54025
523.00934	501.40564
524.0047	516.81207
525	513.34967
525.9953	503.9548
526.99066	510.07278
527.98596	514.06042
528.98126	506.46625
529.97656	512.46619
530.97192	508.332
531.96722	506.52371
532.96252	499.81857
533.95782	506.40704
534.95319	519.36694
535.94849	514.44983
536.94379	511.22
537.93909	513.55579
538.93445	515.8858
539.92975	519.38116
540.92505	514.92078
541.92035	509.53491
542.91571	503.90033
543.91101	512.25946
544.90631	521.74097
545.90161	515.7804
546.89697	515.44708
547.89227	514.55487
548.88757	509.3558
549.88287	507.76382
550.87823	504.31046
551.87354	502.73975
552.86884	504.15784
553.8642	515.67389
554.8595	521.5293
555.8548	521.08899
556.8501	514.48236
557.84546	518.7254
558.84076	519.55927
559.83606	508.14133
560.83136	507.64008
561.82672	509.29083
562.82202	509.90326
563.81732	521.5025
564.81262	519.26642
565.80798	514.43579
566.80328	507.0145
567.79858	505.11032
568.79388	507.55115
569.78925	500.47516
570.78455	504.51419
571.77985	508.06531
572.77515	506.44061
573.77051	503.16669
574.76581	506.12332
575.76111	505.69244
576.75647	511.48886
577.75177	515.41394
578.74707	517.42523
579.74237	511.30212
580.73773	499.65753
581.73303	508.78928
582.72833	512.53912
583.72363	501.77612
584.71899	491.16953
585.71429	492.86884
586.70959	510.65182
587.7049	497.26373
588.70026	514.08435
589.69556	515.77045
590.69086	509.39578
591.68616	520.96295
592.68152	508.93292
593.67682	504.25439
594.67212	504.02414
595.66742	497.83987
596.66278	505.98099
597.65808	519.10699
598.65338	511.45081
599.64868	509.43616
600.64404	500.25537
601.63934	499.79733
602.63464	505.60443
603.63	507.26004
604.62531	514.24744
605.62061	517.29498
606.61591	515.49316
607.61127	509.1861
608.60657	501.80524
609.60187	505.59195
610.59717	505.35251
611.59253	515.23743
612.58783	516.927
613.58313	512.8996
614.57843	513.05859
615.57379	513.99579
616.56909	516.08026
617.56439	512.74524
618.55969	516.57495
619.55505	518.31555
620.55035	511.41437
621.54565	507.68616
622.54095	511.16116
623.53632	499.67313
624.53162	501.46201
625.52692	507.29446
626.52228	511.67297
627.51758	503.65985
628.51288	510.13986
629.50818	507.95227
630.50354	508.18921
631.49884	500.67706
632.49414	506.18747
633.48944	501.81299
634.4848	496.19223
635.4801	498.36142
636.4754	507.41013
637.4707	506.32224
638.46606	506.86823
639.46136	514.68585
640.45667	511.02963
641.45197	511.97214
642.44733	511.93423
643.44263	511.97363
644.43793	503.5564
645.43323	506.09836
646.42859	494.44977
647.42389	505.48221
648.41919	500.48203
649.41449	506.99417
650.40985	516.62262
651.40515	502.35498
652.40045	515.91394
653.39581	512.28625
654.39111	504.99286
655.38641	503.76956
656.38171	506.6799
657.37708	510.27753
658.37238	495.08206
659.36768	493.03152
660.36298	499.6203
661.35834	503.9783
662.35364	505.07184
663.34894	509.11731
664.34424	510.80539
665.3396	509.23602
666.3349	508.41473
667.3302	502.41772
668.3255	503.59625
669.32086	502.20178
670.31616	493.80951
671.31146	502.70889
672.30676	492.73367
673.30212	497.00269
674.29742	503.23846
675.29272	505.90347
676.28809	503.46268
677.28339	505.84119
678.27869	511.7204
679.27399	517.74341
680.26935	513.27722
681.26465	515.94122
682.25995	511.34641
683.25525	504.4158
684.25061	506.90866
685.24591	510.53427
686.24121	512.32922
687.23651	498.13953
688.23187	495.51495
689.22717	498.92285
690.22247	503.474
691.21777	508.22766
692.21313	518.07037
693.20844	517.06586
694.20374	510.33069
695.19904	497.14966
696.1944	508.13321
697.1897	500.87097
698.185	494.06631
699.1803	494.76407
700.17566	507.05078
701.17096	504.36169
702.16626	499.46823
703.16162	499.8728
704.15692	501.77191
705.15222	506.77399
706.14752	504.6394
707.14288	497.68051
708.13818	504.24271
709.13348	509.76224
710.12878	513.51416
711.12415	513.17657
712.11945	508.43399
713.11475	509.32108
714.11005	503.33176
715.10541	501.38181
716.10071	503.95911
717.09601	506.38626
718.09131	512.48523
719.08667	501.01175
720.08197	495.36682
721.07727	505.50864
722.07257	510.94962
723.06793	505.95728
724.06323	502.64017
725.05853	508.23444
726.05389	509.68817
727.04919	511.71832
728.04449	503.36145
729.03979	507.24722
730.03516	509.45801
731.03046	494.35428
732.02576	502.27258
733.02106	506.80969
734.01642	501.1384
735.01172	509.35349
736.00702	503.69058
737.00232	497.77347
737.99768	502.87943
738.99298	510.89487
739.98828	509.70786
740.98358	507.38562
741.97894	512.93927
742.97424	519.51355
743.96954	506.09879
744.96484	515.41229
745.96021	513.41895
746.95551	501.28381
747.95081	505.01855
748.94611	509.20825
749.94147	502.3006
750.93677	509.88995
751.93207	504.4433
752.92743	505.63995
753.92273	509.52115
754.91803	502.58426
755.91333	503.48697
756.90869	516.42133
757.90399	501.11404
758.89929	506.43301
759.89459	501.02167
760.88995	515.87433
761.88525	517.72992
762.88055	498.12714
763.87585	502.53098
764.87122	513.35449
765.86652	514.43225
766.86182	514.87842
767.85712	522.06696
768.85248	511.75269
769.84778	514.05493
770.84308	524.34418
771.83838	517.31427
772.83374	511.52277
773.82904	514.42255
774.82434	522.93365
775.8197	522.10077
776.815	516.03247
777.8103	520.1947
778.8056	512.49109
779.80096	513.79205
780.79626	520.46075
781.79156	509.2457
782.78687	511.98972
783.78223	515.87311
784.77753	514.98383
785.77283	508.87488
786.76813	504.76752
787.76349	508.00479
788.75879	522.19055
789.75409	521.5224
790.74939	510.60895
791.74475	511.74237
792.74005	520.85089
793.73535	505.01944
794.73065	501.99615
795.72601	505.07898
796.72131	509.58939
797.71661	510.12686
798.71191	520.13806
799.70728	522.76965
800.70258	518.81793
801.69788	517.77515
802.69324	519.91113
803.68854	512.12329
804.68384	515.76874
805.67914	527.09967
806.6745	520.55774
807.6698	519.69739
808.6651	503.23206
809.6604	506.46579
810.65576	516.3385
811.65106	514.19147
812.64636	518.75305
813.64166	514.19354
814.63702	518.74036
815.63232	521.68219
816.62762	513.69409
817.62292	509.67007
818.61829	517.7616
819.61359	515.39197
820.60889	507.34891
821.60419	506.20731
822.59955	510.61133
823.59485	518.25494
824.59015	513.59833
825.58551	507.71317
826.58081	510.31372
827.57611	518.26703
828.57141	520.20313
829.56677	525.26978
830.56207	520.57068
831.55737	521.94055
832.55267	513.82928
833.54803	518.70239
834.54333	522.93866
835.53864	521.62219
836.53394	522.91449
837.5293	515.59424
838.5246	518.16522
839.5199	526.94751
840.5152	518.48407
841.51056	513.58197
842.50586	525.78839
843.50116	527.80243
844.49646	529.39874
845.49182	521.0708
846.48712	519.91235
847.48242	521.28741
848.47772	521.84308
849.47308	520.47125
850.46838	532.64777
851.46368	527.20251
852.45905	530.59015
853.45435	520.33771
854.44965	520.18457
855.44495	518.07349
856.44031	529.94403
857.43561	531.89288
858.43091	528.72302
859.42621	533.0318
860.42157	531.40039
861.41687	527.05774
862.41217	537.70343
863.40747	544.26538
864.40283	539.76184
865.39813	525.24158
866.39343	537.32947
867.38873	544.41534
868.38409	534.85693
869.37939	524.18628
870.37469	542.18304
871.37	535.44409
872.36536	540.02222
873.36066	532.15198
874.35596	528.39685
875.35132	528.51733
876.34662	527.18555
877.34192	524.73529
878.33722	526.41144
879.33258	527.38123
880.32788	529.24548
881.32318	524.29919
882.31848	531.0675
883.31384	534.40521
884.30914	525.36963
885.30444	526.33722
886.29974	519.74731
887.2951	532.71088
888.29041	532.97601
889.28571	524.97174
890.28101	529.15033
891.27637	534.26019
892.27167	540.37866
893.26697	539.18286
894.26227	530.9259
895.25763	527.16083
896.25293	522.80371
897.24823	527.09131
898.24353	527.77344
899.23889	534.05951
900.23419	527.37128
901.22949	533.76758
902.22485	536.52112
903.22015	536.51532
904.21545	535.27209
905.21075	535.71149
906.20612	535.16718
907.20142	538.78137
908.19672	513.78558
909.19202	535.36993
910.18738	535.37482
911.18268	537.98676
912.17798	539.98517
913.17328	540.43378
914.16864	540.37164
915.16394	540.53528
916.15924	526.50397
917.15454	525.95447
918.1499	532.28064
919.1452	530.84338
920.1405	529.65729
921.1358	541.80652
922.13116	535.23431
923.12646	551.85388
924.12177	549.30676
925.11713	543.25867
926.11243	544.86688
927.10773	547.31024
928.10303	541.63281
929.09839	534.05927
930.09369	537.07001
931.08899	529.21326
932.08429	553.42755
933.07965	541.78693
934.07495	536.94812
935.07025	542.33081
936.06555	540.47632
937.06091	539.43494
938.05621	553.10962
939.05151	540.07214
940.04681	541.28271
941.04218	546.64551
942.03748	552.98315
943.03278	556.74957
944.02808	553.06854
945.02344	554.50952
946.01874	542.79736
947.01404	540.4743
948.00934	541.51642
949.0047	538.98505
950	540.66229
950.9953	549.32977
951.99066	556.01031
952.98596	557.66174
953.98126	557.67114
954.97656	547.69635
955.97192	555.38013
956.96722	553.19513
957.96252	550.4425
958.95782	552.69788
959.95319	553.03973
960.94849	549.68835
961.94379	555.40729
962.93909	552.01135
963.93445	541.69952
964.92975	533.34393
965.92505	536.09906
966.92035	543.86908
967.91571	542.81244
968.91101	559.65753
969.90631	563.70227
970.90161	541.98474
971.89697	552.97375
972.89227	555.2146
973.88757	544.3454
974.88287	538.35187
975.87823	539.88818
976.87354	556.30066
977.86884	556.1723
978.8642	559.13489
979.8595	555.76947
980.8548	550.78381
981.8501	542.54193
982.84546	537.29962
983.84076	555.01569
984.83606	552.53241
985.83136	557.31403
986.82672	559.40436
987.82202	546.32397
988.81732	545.69635
989.81262	555.87756
990.80798	559.90533
991.80328	539.30072
992.79858	539.03845
993.79388	548.70209
994.78925	549.28357
995.78455	550.20514
996.77985	554.19781
997.77515	561.66895
998.77051	565.27869
999.76581	562.8573
1000.7611	554.65686
1001.7565	568.47437
1002.7518	563.7616
1003.7471	556.91437
1004.7424	556.85663
1005.7377	559.6463
1006.733	560.0415
1007.7283	555.72687
1008.7236	572.37231
1009.719	568.73425
1010.7143	559.76599
1011.7096	555.39288
1012.7049	561.16309
1013.7003	567.78619
1014.6956	565.89893
1015.6909	560.72101
1016.6862	560.1626
1017.6815	564.19714
1018.6768	569.49524
1019.6721	578.3631
1020.6674	575.11249
1021.6628	578.96844
1022.6581	578.4715
1023.6534	557.93469
1024.6487	578.17505
1025.644	574.71924
1026.6394	577.02881
1027.6346	563.74817
1028.63	565.40076
1029.6252	573.91016
1030.6206	572.87079
1031.616	576.30444
1032.6112	575.41327
1033.6066	556.98566
1034.6019	566.84412
1035.5972	574.53009
1036.5925	571.34918
1037.5878	564.44794
1038.5831	566.48425
1039.5785	577.22235
1040.5737	590.95978
1041.5691	581.4989
1042.5645	565.71985
1043.5597	577.29272
1044.5551	576.73615
1045.5503	584.22296
1046.5457	591.2168
1047.541	595.22723
1048.5363	595.63824
1049.5316	594.08868
1050.527	573.22968
1051.5222	589.81476
1052.5176	594.11023
1053.5129	597.18158
1054.5082	593.58435
1055.5035	602.20654
1056.4988	606.7204
1057.4941	592.14679
1058.4895	593.64514
1059.4847	585.87189
1060.4801	596.93323
1061.4755	594.29449
1062.4707	596.27625
1063.4661	602.29517
1064.4613	608.62311
1065.4567	604.51123
1066.452	591.65131
1067.4473	599.39795
1068.4426	597.47522
1069.438	610.89136
1070.4332	606.46454
1071.4286	613.46405
1072.4238	623.33807
1073.4192	608.87018
1074.4146	609.49121
1075.4098	611.41022
1076.4052	615.65216
1077.4005	618.60803
1078.3958	624.51471
1079.3911	604.11938
1080.3865	607.12323
1081.3817	621.27277
1082.3771	620.03833
1083.3723	609.3667
1084.3677	622.62335
1085.363	615.20105
1086.3583	621.00879
1087.3536	620.5882
1088.349	624.82727
1089.3442	620.57391
1090.3396	623.47308
1091.3348	623.53046
1092.3302	615.30609
1093.3256	625.65588
1094.3208	622.20642
1095.3162	639.65533
1096.3115	648.47327
1097.3068	646.7652
1098.3021	647.22205
1099.2974	659.12494
1100.2927	651.71698
1101.2881	633.94879
1102.2833	649.12415
1103.2787	645.23517
1104.274	657.7926
1105.2693	658.55994
1106.2646	658.66846
1107.26	658.42249
1108.2552	653.21149
1109.2506	659.50525
1110.2458	660.48529
1111.2412	661.36255
1112.2366	668.89386
1113.2318	670.3269
1114.2272	670.60645
1115.2225	668.91577
1116.2178	663.23334
1117.2131	668.67609
1118.2084	680.43378
1119.2037	689.51093
1120.1991	680.4118
1121.1943	686.13525
1122.1897	682.2489
1123.1851	701.63129
1124.1803	696.45111
1125.1757	695.38776
1126.171	699.70172
1127.1663	685.80011
1128.1616	687.13458
1129.1569	697.25208
1130.1522	716.07501
1131.1476	709.94049
1132.1428	700.45502
1133.1382	692.93304
1134.1335	702.64984
1135.1288	692.44287
1136.1241	694.72241
1137.1194	697.8678
1138.1147	697.40527
1139.1101	703.86981
1140.1053	716.4986
1141.1007	694.44354
1142.0961	707.49738
1143.0913	720.50702
1144.0867	706.13556
1145.0819	710.14374
1146.0773	720.01288
1147.0726	713.55115
1148.0679	695.85095
1149.0632	714.95142
1150.0586	714.67322
1151.0538	694.82831
1152.0492	694.37366
1153.0446	701.64362
1154.0398	703.94928
1155.0352	703.61688
1156.0304	694.64569
1157.0258	706.15533
1158.0211	691.96777
1159.0164	709.1134
1160.0117	727.87433
1161.0071	719.31421
1162.0023	726.69464
1162.9977	737.41138
1163.9929	722.17267
1164.9883	721.45618
1165.9836	722.8031
1166.9789	725.26605
1167.9742	713.41132
1168.9696	714.74261
1169.9648	710.35559
1170.9602	723.20557
1171.9554	722.87561
1172.9508	718.63251
1173.9462	715.81494
1174.9414	712.20459
1175.9368	736.39374
1176.9321	715.04828
1177.9274	714.49164
1178.9227	727.39148
1179.9181	731.95764
1180.9133	709.17139
1181.9087	713.40082
1182.9039	712.41864
1183.8993	730.14581
1184.8947	726.6933
1185.8899	744.66711
1186.8853	724.45258
1187.8806	730.73138
1188.8759	726.73694
1189.8712	742.39252
1190.8665	734.49023
1191.8618	736.54315
1192.8572	735.90637
1193.8524	727.34589
1194.8478	728.47736
1195.8431	741.29901
1196.8384	749.7688
1197.8337	731.44507
1198.829	750.91675
1199.8243	748.75452
1200.8197	729.93341
1201.8149	732.93042
1202.8103	741.67651
1203.8057	741.68811
1204.8009	760.1701
1205.7963	741.67365
1206.7916	743.10175
1207.7869	736.79773
1208.7822	741.94794
1209.7775	748.62604
1210.7728	758.87189
1211.7682	766.9743
1212.7634	771.5918
1213.7588	767.14185
1214.7542	765.51483
1215.7494	781.16571
1216.7448	770.82178
1217.74	766.34338
1218.7354	767.95715
1219.7307	781.7052
1220.726	776.16711
1221.7213	773.81104
1222.7167	776.07483
1223.7119	767.7019
1224.7073	762.21143
1225.7026	779.90149
1226.6979	800.64313
1227.6932	819.21667
1228.6885	807.85413
1229.6838	791.51178
1230.6792	809.19934
1231.6744	813.0412
1232.6698	836.72845
1233.6652	831.01245
1234.6604	815.89569
1235.6558	851.33636
1236.651	839.65027
1237.6464	845.24896
1238.6417	844.9245
1239.637	859.74756
1240.6323	866.31555
1241.6277	867.70917
1242.6229	863.97729
1243.6183	874.59998
1244.6135	897.00568
1245.6089	892.36346
1246.6042	863.87305
1247.5995	882.95032
1248.5948	884.37433
1249.5902	896.21661
1250.5854	923.53467
1251.5808	935.28955
1252.5762	925.96765
1253.5714	913.83093
1254.5668	923.37781
1255.562	938.26434
1256.5574	950.51044
1257.5527	960.40961
1258.548	982.91638
1259.5433	1006.6724
1260.5387	1004.5521
1261.5339	1008.7509
1262.5293	1012.1708
1263.5245	1007.7307
1264.5199	1027.7933
1265.5153	1050.153
1266.5105	1033.9008
1267.5059	1049.5193
1268.5012	1106.2856
1269.4965	1101.6505
1270.4918	1093.0891
1271.4871	1113.4333
1272.4824	1122.5784
1273.4778	1144.6772
1274.473	1185.3475
1275.4684	1201.5343
1276.4637	1205.2208
1277.459	1199.8861
1278.4543	1221.4951
1279.4497	1248.2894
1280.4449	1240.1475
1281.4403	1256.3894
1282.4355	1289.9388
1283.4309	1313.509
1284.4263	1349.1486
1285.4215	1364.8641
1286.4169	1396.3339
1287.4122	1404.697
1288.4075	1413.2257
1289.4028	1472.9454
1290.3981	1484.7872
1291.3934	1530.2014
1292.3888	1547.618
1293.384	1625.488
1294.3794	1636.8655
1295.3748	1682.2074
1296.37	1703.7671
1297.3654	1728.9969
1298.3606	1796.4927
1299.356	1824.3761
1300.3513	1866.1636
1301.3466	1916.0201
1302.3419	1971.2196
1303.3373	2019.7805
1304.3325	2038.6688
1305.3279	2102.332
1306.3232	2170.3691
1307.3185	2215.9526
1308.3138	2291.8398
1309.3091	2333.0459
1310.3044	2386.3052
1311.2998	2481.7571
1312.295	2552.5337
1313.2904	2635.1709
1314.2858	2670.9045
1315.281	2743.7424
1316.2764	2827.3352
1317.2716	2906.5984
1318.267	2973.8706
1319.2623	3034.679
1320.2576	3058.377
1321.2529	3136.9482
1322.2483	3214.5352
1323.2435	3281.7239
1324.2389	3328.3208
1325.2343	3394.5769
1326.2295	3440.9802
1327.2249	3446.1738
1328.2201	3541.0208
1329.2155	3528.2119
1330.2108	3567.4092
1331.2061	3581.7732
1332.2014	3546.2158
1333.1968	3529.4397
1334.192	3525.7471
1335.1874	3495.2632
1336.1826	3454.917
1337.178	3400.2009
1338.1733	3374.9534
1339.1686	3314.353
1340.1639	3233.0237
1341.1593	3201.1318
1342.1545	3142.8972
1343.1499	3068.7178
1344.1451	2984.9238
1345.1405	2928.8909
1346.1359	2840.6404
1347.1311	2750.9221
1348.1265	2711.5779
1349.1218	2657.7085
1350.1171	2577.769
1351.1124	2496.1514
1352.1078	2413.0654
1353.103	2346.6621
1354.0984	2276.3064
1355.0936	2175.7864
1356.089	2148.9939
1357.0844	2147.0068
1358.0796	2070.53
1359.075	1978.4404
1360.0703	1953.7991
1361.0656	1918.7935
1362.0609	1852.0503
1363.0562	1754.9446
1364.0515	1733.4867
1365.0469	1685.3468
1366.0421	1683.5302
1367.0375	1621.5557
1368.0328	1572.3032
1369.0281	1540.1313
1370.0234	1526.0476
1371.0187	1498.2019
1372.014	1475.231
1373.0094	1443.7981
1374.0046	1393.3259
1375	1379.5577
1375.9954	1346.9813
1376.9906	1344.775
1377.986	1311.2045
1378.9813	1307.4855
1379.9766	1303.2289
1380.9719	1251.4144
1381.9672	1214.5247
1382.9625	1195.6388
1383.9579	1186.3704
1384.9531	1181.2572
1385.9485	1169.8917
1386.9438	1154.6628
1387.9391	1133.1019
1388.9344	1116.1222
1389.9297	1108.3348
1390.925	1093.4517
1391.9204	1079.7903
1392.9156	1090.7747
1393.911	1089.1887
1394.9064	1079.6006
1395.9016	1050.2267
1396.897	1034.7742
1397.8922	1043.9045
1398.8876	1031.4982
1399.8829	1018.2716
1400.8782	1015.1603
1401.8735	995.1322
1402.8689	1004.9044
1403.8641	981.99091
1404.8595	985.13037
1405.8549	982.56525
1406.8501	986.7821
1407.8455	953.66504
1408.8407	947.73547
1409.8361	947.56543
1410.8314	961.71875
1411.8267	955.99536
1412.822	940.46301
1413.8174	943.8255
1414.8126	924.3222
1415.808	915.88007
1416.8032	919.68524
1417.7986	908.51355
1418.7939	892.02533
1419.7892	910.13818
1420.7845	901.75891
1421.7799	911.76898
1422.7751	905.91504
1423.7705	882.96222
1424.7657	885.66577
1425.7611	898.58356
1426.7565	901.81567
1427.7517	888.35162
1428.7471	881.80737
1429.7424	859.39832
1430.7377	858.51385
1431.733	856.77441
1432.7284	854.1557
1433.7236	872.78998
1434.719	887.51221
1435.7142	862.42133
1436.7096	855.90485
1437.705	848.05853
1438.7002	853.55334
1439.6956	856.53455
1440.6909	837.47589
1441.6862	850.01758
1442.6815	866.73431
1443.6768	851.784
1444.6721	847.2713
1445.6675	869.38995
1446.6627	853.34009
1447.6581	837.78125
1448.6534	855.34546
1449.6487	846.19739
1450.644	858.18988
1451.6394	841.58325
1452.6346	847.34222
1453.63	843.99121
1454.6252	825.53137
1455.6206	824.05481
1456.616	845.03046
1457.6112	843.70905
1458.6066	820.34619
1459.6019	816.13336
1460.5972	840.37286
1461.5925	836.7298
1462.5878	832.38196
1463.5831	848.76392
1464.5785	831.7113
1465.5737	815.37817
1466.5691	850.06848
1467.5645	824.22748
1468.5597	838.58514
1469.5551	833.71454
1470.5503	829.94116
1471.5457	825.47784
1472.541	846.47772
1473.5363	838.3161
1474.5316	822.57965
1475.527	845.51959
1476.5222	846.9967
1477.5176	863.36963
1478.5129	853.92383
1479.5082	843.73779
1480.5035	853.58875
1481.4988	854.71527
1482.4941	871.63983
1483.4895	861.5188
1484.4847	855.8869
1485.4801	840.59802
1486.4755	836.73645
1487.4707	842.76208
1488.4661	841.62097
1489.4613	879.08832
1490.4567	879.12427
1491.452	842.29663
1492.4473	868.90729
1493.4426	872.27618
1494.438	867.13831
1495.4332	868.50812
1496.4286	859.60687
1497.4238	879.62988
1498.4192	885.00952
1499.4146	860.55286
1500.4098	875.73761
1501.4052	892.46674
1502.4005	887.16071
1503.3958	898.67889
1504.3911	901.59973
1505.3865	882.50885
1506.3817	878.55371
1507.3771	893.22443
1508.3723	905.38159
1509.3677	908.12506
1510.363	899.99585
1511.3583	910.29633
1512.3536	910.81061
1513.349	913.30011
1514.3442	911.42474
1515.3396	902.61603
1516.3348	914.1142
1517.3302	917.19958
1518.3256	935.61292
1519.3208	949.53046
1520.3162	957.341
1521.3115	994.73785
1522.3068	966.45306
1523.3021	970.79193
1524.2974	942.52521
1525.2927	972.3717
1526.2881	993.48389
1527.2833	994.95544
1528.2787	1008.6476
1529.274	1003.7223
1530.2693	1053.1119
1531.2646	1038.7281
1532.26	1036.9844
1533.2552	1061.0724
1534.2506	1073.3409
1535.2458	1104.4182
1536.2412	1109.4109
1537.2366	1147.0095
1538.2318	1154.5681
1539.2272	1158.7422
1540.2225	1177.4628
1541.2178	1202.2449
1542.2131	1219.847
1543.2084	1248.9104
1544.2037	1246.4656
1545.1991	1297.668
1546.1943	1298.9152
1547.1897	1330.0541
1548.1851	1378.4125
1549.1803	1414.989
1550.1757	1435.579
1551.171	1462.9324
1552.1663	1512.8334
1553.1616	1582.1055
1554.1569	1606.4226
1555.1522	1652.2488
1556.1476	1679.5929
1557.1428	1756.5654
1558.1382	1804.1985
1559.1335	1852.0178
1560.1288	1891.7385
1561.1241	1952.364
1562.1194	2060.595
1563.1147	2125.2261
1564.1101	2123.0115
1565.1053	2223.9341
1566.1007	2295.9194
1567.0961	2401.1841
1568.0913	2434.8469
1569.0867	2480.2012
1570.0819	2535.8982
1571.0773	2611.3167
1572.0726	2676.8818
1573.0679	2728.5022
1574.0632	2793.0969
1575.0586	2845.8877
1576.0538	2855.105
1577.0492	2860.6663
1578.0446	2900.3862
1579.0398	2935.8601
1580.0352	2960.4314
1581.0304	2944.3591
1582.0258	2913.1221
1583.0211	2946.0203
1584.0164	2918.9443
1585.0117	2877.6812
1586.0071	2848.009
1587.0023	2845.9846
1587.9977	2801.343
1588.9929	2779.439
1589.9883	2713.729
1590.9836	2642.3472
1591.9789	2575.0754
1592.9742	2567.8574
1593.9696	2507.4778
1594.9648	2464.3118
1595.9602	2471.0146
1596.9554	2470.0642
1597.9508	2442.6106
1598.9462	2389.7148
1599.9414	2374.8081
1600.9368	2370.8657
1601.9321	2368.2432
1602.9274	2365.6523
1603.9227	2324.6206
1604.9181	2325.2903
1605.9133	2325.9424
1606.9087	2330.9756
1607.9039	2354.8916
1608.8993	2358.8982
1609.8947	2332.5566
1610.8899	2329.7925
1611.8853	2363.8877
1612.8806	2316.9868
1613.8759	2274.2236
1614.8712	2263.8416
1615.8665	2242.1978
1616.8618	2208.1135
1617.8572	2128.4756
1618.8524	2053.4246
1619.8478	2002.8284
1620.8431	1988.5533
1621.8384	1879.514
1622.8337	1808.0106
1623.829	1776.1868
1624.8243	1712.9037
1625.8197	1653.5367
1626.8149	1594.722
1627.8103	1548.5801
1628.8057	1477.7911
1629.8009	1438.8188
1630.7963	1412.2944
1631.7916	1357.272
1632.7869	1306.9823
1633.7822	1256.9839
1634.7775	1221.6339
1635.7728	1188.5282
1636.7682	1157.0339
1637.7634	1113.8132
1638.7588	1083.5336
1639.7542	1048.0339
1640.7494	1016.5704
1641.7448	1000.1456
1642.74	973.88568
1643.7354	948.46075
1644.7307	921.97961
1645.726	915.28046
1646.7213	903.5166
1647.7167	899.19458
1648.7119	874.19745
1649.7073	844.09454
1650.7026	831.75275
1651.6979	841.35272
1652.6932	811.77332
1653.6885	805.97107
1654.6838	790.20459
1655.6792	831.9751
1656.6744	793.94818
1657.6698	799.76709
1658.6652	790.49921
1659.6604	765.78265
1660.6558	746.95264
1661.651	750.29541
1662.6464	751.67822
1663.6417	729.50171
1664.637	710.45447
1665.6323	712.78107
1666.6277	709.74622
1667.6229	706.91144
1668.6183	698.33472
1669.6135	692.71198
1670.6089	692.5304
1671.6042	701.12653
1672.5995	688.14398
1673.5948	684.43597
1674.5902	689.76489
1675.5854	705.59363
1676.5808	684.04565
1677.5762	683.06366
1678.5714	676.43976
1679.5668	676.68781
1680.562	663.20221
1681.5574	672.41266
1682.5527	656.46674
1683.548	652.3681
1684.5433	649.95752
1685.5387	633.45288
1686.5339	634.99487
1687.5293	656.40155
1688.5245	650.48975
1689.5199	646.28137
1690.5153	643.97998
1691.5105	637.8537
1692.5059	638.28027
1693.5012	642.47931
1694.4965	643.02551
1695.4918	630.42828
1696.4871	628.59497
1697.4824	643.26703
1698.4778	646.81647
1699.473	638.41656
1700.4684	641.74219
1701.4637	637.9986
1702.459	626.70886
1703.4543	631.33521
1704.4497	642.89734
1705.4449	620.82471
1706.4403	618.05286
1707.4355	629.57159
1708.4309	617.38269
1709.4263	608.0614
1710.4215	634.54346
1711.4169	619.56488
1712.4122	626.02051
1713.4075	614.86078
1714.4028	610.15735
1715.3981	623.50488
1716.3934	616.71338
1717.3888	613.10547
1718.384	598.56824
1719.3794	607.42731
1720.3748	614.59509
1721.37	602.28296
1722.3654	612.52686
1723.3606	602.58905
1724.356	603.69421
1725.3513	604.51941
1726.3466	602.58716
1727.3419	616.82806
1728.3373	618.15839
1729.3325	610.56183
1730.3279	603.24988
1731.3232	596.77795
1732.3185	591.70642
1733.3138	591.36981
1734.3091	592.15222
1735.3044	593.32922
1736.2998	602.51392
1737.295	599.7041
1738.2904	593.80328
1739.2858	597.50647
1740.281	603.48987
1741.2764	617.29596
1742.2716	607.25488
1743.267	612.6087
1744.2623	604.23962
1745.2576	604.2193
1746.2529	599.53931
1747.2483	604.39941
1748.2435	590.70105
1749.2389	589.98767
1750.2343	595.26489
1751.2295	599.09351
1752.2249	594.40002
1753.2201	587.92438
1754.2155	593.46979
1755.2108	578.29456
1756.2061	587.33209
1757.2014	604.50354
1758.1968	586.69098
1759.192	597.00867
1760.1874	591.75146
1761.1826	588.62573
1762.178	582.00928
1763.1733	575.78375
1764.1686	581.58112
1765.1639	596.55768
1766.1593	603.38074
1767.1545	599.39343
1768.1499	590.59546
1769.1451	591.61029
1770.1405	596.00983
1771.1359	599.65356
1772.1311	599.03107
1773.1265	601.06396
1774.1218	604.02142
1775.1171	592.83038
1776.1124	589.78241
1777.1078	607.2536
1778.103	605.71387
1779.0984	591.75586
1780.0936	592.64063
1781.089	597.78693
1782.0844	599.91565
1783.0796	585.39063
1784.075	593.06488
1785.0703	583.3822
1786.0656	590.28918
1787.0609	590.36877
1788.0562	580.75165
1789.0515	592.76837
1790.0469	600.70374
1791.0421	593.30377
1792.0375	585.32813
1793.0328	598.49695
1794.0281	597.12347
1795.0234	603.63306
1796.0187	583.28088
1797.014	595.16528
1798.0094	595.23108
1799.0046	586.01038
1800	589.65631
1800.9954	585.0816
1801.9906	590.71216
1802.986	597.38171
1803.9813	604.95093
1804.9766	605.3125
1805.9719	588.89819
1806.9672	598.25061
1807.9625	595.75897
1808.9579	605.01471
1809.9531	586.96088
1810.9485	605.62671
1811.9438	602.10498
1812.9391	588.12762
1813.9344	589.92279
1814.9297	593.72638
1815.925	594.30664
1816.9204	594.11029
1817.9156	593.85254
1818.911	598.01074
1819.9064	605.53149
1820.9016	597.85974
1821.897	595.71997
1822.8922	592.10175
1823.8876	596.52277
1824.8829	601.36859
1825.8782	603.74518
1826.8735	594.42053
1827.8689	584.64581
1828.8641	593.84656
1829.8595	601.05988
1830.8549	608.50482
1831.8501	609.08887
1832.8455	600.83093
1833.8407	589.35986
1834.8361	593.3493
1835.8314	597.74829
1836.8267	599.13654
1837.822	594.73639
1838.8174	589.73096
1839.8126	592.43573
1840.808	596.80249
1841.8032	594.29529
1842.7986	597.31226
1843.7939	603.25244
1844.7892	587.42322
1845.7845	588.15204
1846.7799	591.86407
1847.7751	594.914
1848.7705	596.67426
1849.7657	596.90271
1850.7611	583.51904
1851.7565	594.86304
1852.7517	594.01849
1853.7471	600.63849
1854.7424	591.64746
1855.7377	593.61285
1856.733	591.22577
1857.7284	591.78461
1858.7236	598.60138
1859.719	580.2464
1860.7142	579.46954
1861.7096	590.90839
1862.705	592.0907
1863.7002	595.9812
1864.6956	578.55585
1865.6909	589.50482
1866.6862	587.78528
1867.6815	590.11792
1868.6768	577.3656
1869.6721	588.55249
1870.6675	594.08777
1871.6627	584.87366
1872.6581	584.49329
1873.6534	584.76172
1874.6487	590.24017
1875.644	591.13885
1876.6394	592.51422
1877.6346	587.96863
1878.63	573.26556
1879.6252	573.31287
1880.6206	572.87073
1881.616	580.7442
1882.6112	578.16412
1883.6066	583.47552
1884.6019	576.10077
1885.5972	588.54144
1886.5925	582.11548
1887.5878	572.81055
1888.5831	578.19397
1889.5785	586.34344
1890.5737	568.57916
1891.5691	588.15692
1892.5645	589.98163
1893.5597	566.45013
1894.5551	582.20245
1895.5503	587.45905
1896.5457	580.26367
1897.541	570.25763
1898.5363	571.1665
1899.5316	586.31885
1900.527	576.93378
1901.5222	577.24597
1902.5176	580.13824
1903.5129	577.47699
1904.5082	584.24316
1905.5035	588.30304
1906.4988	593.01654
1907.4941	592.12073
1908.4895	576.53607
1909.4847	564.51074
1910.4801	595.20624
1911.4755	584.00989
1912.4707	585.65656
1913.4661	585.19159
1914.4613	590.16284
1915.4567	579.11218
1916.452	605.04633
1917.4473	589.09808
1918.4426	593.20435
1919.438	579.86035
1920.4332	586.79749
1921.4286	579.55096
1922.4238	580.91003
1923.4192	596.48199
1924.4146	582.42932
1925.4098	569.3313
1926.4052	585.62793
1927.4005	581.13892
1928.3958	587.12683
1929.3911	574.56415
1930.3865	589.11365
1931.3817	579.44708
1932.3771	569.33783
1933.3723	583.48755
1934.3677	587.09961
1935.363	587.71442
1936.3583	598.01477
1937.3536	602.33887
1938.349	595.55676
1939.3442	571.73547
1940.3396	584.966
1941.3348	590.7851
1942.3302	593.94922
1943.3256	593.56012
1944.3208	581.75006
1945.3162	571.10724
1946.3115	579.43341
1947.3068	588.15253
1948.3021	576.11859
1949.2974	579.95276
1950.2927	593.73523
1951.2881	579.43652
1952.2833	588.55896
1953.2787	575.83685
1954.274	583.00824
1955.2693	585.383
1956.2646	587.35791
1957.26	578.46771
1958.2552	580.64001
1959.2506	612.95917
1960.2458	588.3078
1961.2412	570.93817
1962.2366	580.9563
1963.2318	581.06512
1964.2272	592.02289
1965.2225	578.12756
1966.2178	587.71368
1967.2131	577.63751
1968.2084	581.90314
1969.2037	586.85376
1970.1991	592.3844
1971.1943	588.18011
1972.1897	583.99188
1973.1851	576.96759
1974.1803	582.49371
1975.1757	594.48145
1976.171	579.83728
1977.1663	583.76233
1978.1616	596.47119
1979.1569	591.12122
1980.1522	588.72284
1981.1476	570.87054
1982.1428	579.23151
1983.1382	575.12775
1984.1335	581.71118
1985.1288	576.85126
1986.1241	581.42706
1987.1194	585.11981
1988.1147	595.40173
1989.1101	576.46606
1990.1053	589.47888
1991.1007	589.94598
1992.0961	590.48395
1993.0913	579.7381
1994.0867	579.93439
1995.0819	572.56329
1996.0773	581.93042
1997.0726	600.12207
1998.0679	587.63434
1999.0632	588.43323
2000.0586	577.31793
2001.0538	575.50818
2002.0492	592.93048
2003.0446	594.50903
2004.0398	587.99921
2005.0352	581.11041
2006.0304	591.2876
2007.0258	580.39508
2008.0211	571.8916
2009.0164	572.28711
2010.0117	583.54083
2011.0071	591.77203
2012.0023	585.91168
2012.9977	571.83771
2013.9929	580.4035
2014.9883	582.3493
2015.9836	581.99719
2016.9789	595.28479
2017.9742	604.89331
2018.9696	596.64258
2019.9648	591.09308
2020.9602	589.98944
2021.9554	591.63873
2022.9508	593.49268
2023.9462	586.06055
2024.9414	579.47003
2025.9368	583.01276
2026.9321	587.76483
2027.9274	580.93848
2028.9227	587.44354
2029.9181	608.41779
2030.9133	593.13037
2031.9087	576.16949
2032.9039	573.151
2033.8993	572.78131
2034.8947	579.6015
2035.8899	587.11011
2036.8853	589.15979
2037.8806	589.81122
2038.8759	584.40649
2039.8712	581.52112
2040.8665	585.20184
2041.8618	575.66144
2042.8572	579.77472
2043.8524	584.39349
2044.8478	588.82666
2045.8431	574.37915
2046.8384	584.24396
2047.8337	569.81415
2048.8291	583.22577
2049.8245	580.95923
2050.8196	589.92303
2051.8149	600.30688
2052.8103	586.21692
2053.8057	584.22272
2054.801	586.23859
2055.7961	586.68701
2056.7915	580.29938
2057.7869	581.49432
2058.7822	584.49615
2059.7776	583.87518
2060.7729	581.4903
2061.7681	588.85529
2062.7634	592.552
2063.7588	602.47217
2064.7542	592.73022
2065.7495	573.54852
2066.7446	573.26086
2067.74	585.42365
2068.7354	580.48218
2069.7307	569.33905
2070.7261	577.87274
2071.7212	587.30682
2072.7166	583.84363
2073.7119	581.23187
2074.7073	572.41541
2075.7026	579.48169
2076.698	565.41254
2077.6931	582.88177
2078.6885	596.64001
2079.6838	571.89532
2080.6792	577.69965
2081.6746	583.77936
2082.6697	589.21893
2083.665	575.03735
2084.6604	587.71082
2085.6558	572.75909
2086.6511	584.14948
2087.6465	574.16614
2088.6416	574.70294
2089.637	568.93799
2090.6323	579.91846
2091.6277	577.42456
2092.623	573.03711
2093.6182	588.55493
2094.6135	589.47162
2095.6089	591.31317
2096.6042	587.19092
2097.5996	582.69342
2098.5947	578.74335
2099.5901	584.03113
2100.5854	577.38104
2101.5808	568.43689
2102.5762	579.60596
2103.5715	585.20697
2104.5667	591.59717
2105.562	591.18616
2106.5574	585.56659
2107.5527	575.35168
2108.5481	567.66547
2109.5432	590.1272
2110.5386	568.73499
2111.5339	579.59491
2112.5293	572.84979
2113.5247	592.47363
2114.52	583.16296
2115.5151	591.16321
2116.5105	570.34698
2117.5059	591.13727
2118.5012	586.12579
2119.4966	575.8894
2120.4917	574.15668
2121.4871	574.31842
2122.4824	566.78345
2123.4778	596.40417
2124.4731	595.5835
2125.4685	597.53107
2126.4636	590.80151
2127.459	600.03888
2128.4543	585.39624
2129.4497	584.78192
2130.4451	585.9621
2131.4402	585.69122
2132.4355	589.27234
2133.4309	582.32153
2134.4263	577.82831
2135.4216	570.92426
2136.4167	584.93146
2137.4121	583.81708
2138.4075	580.39734
2139.4028	585.50909
2140.3982	579.62488
2141.3936	593.71063
2142.3887	591.06519
2143.384	594.47137
2144.3794	591.84491
2145.3748	594.04028
2146.3701	583.56885
2147.3652	590.77747
2148.3606	587.91876
2149.356	596.60382
2150.3513	606.32764
2151.3467	608.21741
2152.342	589.49414
2153.3372	588.17572
2154.3325	593.98083
2155.3279	588.58997
2156.3232	593.8194
2157.3186	594.00861
2158.3137	593.62073
2159.3091	584.36084
2160.3044	577.42792
2161.2998	585.43585
2162.2952	580.86981
2163.2903	586.42383
2164.2856	585.3017
2165.281	583.67572
2166.2764	590.4007
2167.2717	585.60449
2168.2671	575.09302
2169.2622	578.36652
2170.2576	585.02972
2171.2529	587.17639
2172.2483	585.36713
2173.2437	586.66205
2174.2388	583.6806
2175.2341	577.42828
2176.2295	587.43085
2177.2249	583.51178
2178.2202	581.0191
2179.2156	590.13892
2180.2107	590.52325
2181.2061	585.96375
2182.2014	590.4657
2183.1968	603.67053
2184.1921	590.87555
2185.1873	589.86298
2186.1826	591.15106
2187.178	588.54584
2188.1733	589.57745
2189.1687	592.00885
2190.1638	592.71576
2191.1592	584.32599
2192.1545	595.55103
2193.1499	587.30896
2194.1453	597.98151
2195.1406	596.63947
2196.1357	589.06421
2197.1311	601.07037
2198.1265	581.11615
2199.1218	595.13422
2200.1172	593.37451
2201.1123	595.00385
2202.1077	580.12512
2203.103	568.83142
2204.0984	590.23364
2205.0938	590.06793
2206.0891	587.4715
2207.0842	594.40924
2208.0796	580.76691
2209.075	589.94385
2210.0703	606.83521
2211.0657	598.38702
2212.0608	597.30365
2213.0562	607.05023
2214.0515	586.12347
2215.0469	588.52618
2216.0422	583.16315
2217.0374	584.21887
2218.0327	600.78168
2219.0281	598.63556
2220.0234	598.34949
2221.0188	585.99792
2222.0142	578.94141
2223.0093	592.36621
2224.0046	578.60736
2225	586.58392
2225.9954	596.19318
2226.9907	590.11188
2227.9858	581.42352
2228.9812	591.23395
2229.9766	610.00299
2230.9719	599.76978
2231.9673	600.60242
2232.9626	598.68225
2233.9578	591.86163
2234.9531	587.96948
2235.9485	592.76837
2236.9438	603.49347
2237.9392	592.76642
2238.9343	602.85144
2239.9297	608.85101
2240.925	605.11597
2241.9204	594.06824
2242.9158	593.93103
2243.9109	605.92749
2244.9063	595.98718
2245.9016	606.21539
2246.897	596.87573
2247.8923	599.94379
2248.8877	607.01385
2249.8828	601.65363
2250.8782	598.17377
2251.8735	599.17505
2252.8689	613.21252
2253.8643	604.6626
2254.8594	607.48108
2255.8547	594.72498
2256.8501	610.79248
2257.8455	603.78265
2258.8408	597.69348
2259.8362	602.24963
2260.8313	601.78711
2261.8267	601.52179
2262.822	600.75586
2263.8174	605.90057
2264.8127	609.05048
2265.8079	599.7735
2266.8032	611.1947
2267.7986	600.67554
2268.7939	587.44403
2269.7893	612.5498
2270.7844	618.49536
2271.7798	610.51672
2272.7751	599.75189
2273.7705	597.1153
2274.7659	605.77594
2275.7612	594.75085
2276.7563	601.27692
2277.7517	604.17261
2278.7471	609.82288
2279.7424	606.14557
2280.7378	607.13611
2281.7329	630.27228
2282.7283	602.8006
2283.7236	608.28973
2284.719	615.40503
2285.7144	620.14105
2286.7097	603.99371
2287.7048	613.20593
2288.7002	623.79126
2289.6956	612.7561
2290.6909	603.18658
2291.6863	608.49048
2292.6814	607.04712
2293.6768	618.39319
2294.6721	611.89783
2295.6675	606.65546
2296.6628	606.49286
2297.658	586.79462
2298.6533	611.1004
2299.6487	617.80969
2300.644	604.34137
2301.6394	603.74725
2302.6348	609.0304
2303.6299	615.97778
2304.6252	626.42969
2305.6206	611.23267
2306.616	607.8465
2307.6113	616.29236
2308.6064	614.4519
2309.6018	608.55457
2310.5972	611.13953
2311.5925	623.34149
2312.5879	639.97638
2313.5833	609.44684
2314.5784	617.70514
2315.5737	616.36292
2316.5691	610.29822
2317.5645	610.73492
2318.5598	613.99854
2319.5549	613.58801
2320.5503	616.01141
2321.5457	623.22241
2322.541	610.71027
2323.5364	616.23083
2324.5315	622.42407
2325.5269	607.48865
2326.5222	620.64728
2327.5176	611.54169
2328.5129	629.323
2329.5083	631.71771
2330.5034	625.53192
2331.4988	639.78381
2332.4941	639.80157
2333.4895	633.50897
2334.4849	637.17047
2335.48	619.40417
2336.4753	623.65991
2337.4707	631.98187
2338.4661	630.50964
2339.4614	626.55695
2340.4568	633.79053
2341.4519	625.20447
2342.4473	635.89935
2343.4426	626.98065
2344.438	632.01038
2345.4333	643.60901
2346.4285	629.60376
2347.4238	619.94513
2348.4192	644.05505
2349.4146	657.7489
2350.4099	632.9295
2351.4053	636.85889
2352.4004	641.87341
2353.3958	642.2774
2354.3911	641.28259
2355.3865	635.39148
2356.3818	647.14795
2357.377	643.81683
2358.3723	646.63086
2359.3677	625.64514
2360.363	641.27728
2361.3584	640.01453
2362.3535	658.24347
2363.3489	650.29205
2364.3442	639.32257
2365.3396	631.39551
2366.335	646.37262
2367.3303	654.79858
2368.3254	657.7785
2369.3208	648.57227
2370.3162	647.45056
2371.3115	646.65533
2372.3069	628.04895
2373.302	662.99353
2374.2974	664.49048
2375.2927	647.60101
2376.2881	653.60974
2377.2834	642.36572
2378.2788	639.06451
2379.2739	653.85168
2380.2693	646.6391
2381.2646	647.52411
2382.26	648.22101
2383.2554	647.90906
2384.2505	650.10907
2385.2458	655.97284
2386.2412	657.33148
2387.2366	669.59827
2388.2319	664.02777
2389.2271	650.55463
2390.2224	662.29187
2391.2178	641.86676
2392.2131	637.21045
2393.2085	651.46442
2394.2039	656.78247
2395.199	655.49005
2396.1943	655.25085
2397.1897	647.31311
2398.1851	658.71918
2399.1804	658.20007
2400.1755	651.82867
2401.1709	659.09656
2402.1663	667.66785
2403.1616	662.16791
2404.157	674.07318
2405.1523	662.2226
2406.1475	675.37524
2407.1428	670.55048
2408.1382	667.34344
2409.1335	659.48846
2410.1289	668.96252
2411.124	686.94067
2412.1194	659.65253
2413.1147	679.41364
2414.1101	682.50891
2415.1055	664.63885
2416.1006	672.539
2417.0959	677.38287
2418.0913	683.23663
2419.0867	682.84668
2420.082	689.56494
2421.0774	694.16852
2422.0725	682.47742
2423.0679	683.06366
2424.0632	698.39563
2425.0586	692.83984
2426.054	677.74091
2427.0491	687.07983
2428.0444	688.42169
2429.0398	699.71832
2430.0352	699.16431
2431.0305	698.71783
2432.0259	695.84418
2433.021	705.29523
2434.0164	708.86414
2435.0117	703.09534
2436.0071	707.96222
2437.0024	710.57611
2437.9976	692.25037
2438.9929	723.93811
2439.9883	722.10468
2440.9836	719.68628
2441.979	743.40424
2442.9741	737.58301
2443.9695	714.44946
2444.9648	721.44745
2445.9602	716.55432
2446.9556	725.99261
2447.9509	745.52417
2448.946	751.85242
2449.9414	741.38037
2450.9368	738.51868
2451.9321	735.18701
2452.9275	748.96265
2453.9226	737.27484
2454.918	749.84198
2455.9133	747.87726
2456.9087	756.36859
2457.9041	752.17578
2458.8994	749.64221
2459.8945	754.62299
2460.8899	727.34955
2461.8853	752.02087
2462.8806	761.39551
2463.876	749.84381
2464.8711	752.46954
2465.8665	747.47186
2466.8618	737.53577
2467.8572	728.74371
2468.8525	736.24164
2469.8477	748.83405
2470.843	758.03864
2471.8384	740.83142
2472.8337	749.72931
2473.8291	761.11469
2474.8245	755.56879
2475.8196	742.45087
2476.8149	742.93713
2477.8103	735.77289
2478.8057	743.06201
2479.801	740.81805
2480.7961	745.41931
2481.7915	751.73718
2482.7869	737.92413
2483.7822	747.14838
2484.7776	748.21057
2485.7729	737.35577
2486.7681	750.59674
2487.7634	740.23334
2488.7588	746.12939
2489.7542	750.07568
2490.7495	749.14545
2491.7446	760.28955
2492.74	767.34857
2493.7354	749.67957
2494.7307	759.02155
2495.7261	751.17529
2496.7212	756.84534
2497.7166	758.47662
2498.7119	752.95581
2499.7073	758.63434
2500.7026	760.08771
2501.698	753.64899
2502.6931	776.3147
2503.6885	767.59088
2504.6838	762.0401
2505.6792	751.05701
2506.6746	753.3457
2507.6697	750.13416
2508.665	765.79199
2509.6604	758.63507
2510.6558	771.80414
2511.6511	755.29358
2512.6465	761.47272
2513.6416	756.21161
2514.637	766.81464
2515.6323	741.27802
2516.6277	736.82678
2517.623	748.29266
2518.6182	760.65216
2519.6135	762.38116
2520.6089	766.38538
2521.6042	786.95026
2522.5996	790.06787
2523.5947	800.53644
2524.5901	770.49487
2525.5854	791.22473
2526.5808	777.90186
2527.5762	786.01416
2528.5715	786.78064
2529.5667	788.15393
2530.562	791.01538
2531.5574	776.47522
2532.5527	795.34161
2533.5481	786.45068
2534.5432	790.29449
2535.5386	790.17523
2536.5339	801.14264
2537.5293	804.58557
2538.5247	775.62866
2539.52	826.92102
2540.5151	817.81354
2541.5105	801.25311
2542.5059	801.94934
2543.5012	810.98804
2544.4966	826.25903
2545.4917	805.65137
2546.4871	825.8064
2547.4824	830.13202
2548.4778	823.86005
2549.4731	840.58813
2550.4685	828.31757
2551.4636	822.02478
2552.459	832.48029
2553.4543	832.09058
2554.4497	871.76819
2555.4451	855.44635
2556.4402	852.97437
2557.4355	851.09515
2558.4309	873.64905
2559.4263	858.92688
2560.4216	861.06268
2561.4167	869.2373
2562.4121	873.43762
2563.4075	872.88165
2564.4028	908.75513
2565.3982	910.96985
2566.3936	883.14807
2567.3887	901.09229
2568.384	894.81555
2569.3794	912.33313
2570.3748	911.9455
2571.3701	916.63007
2572.3652	933.1792
2573.3606	948.91705
2574.356	963.97601
2575.3513	944.56152
2576.3467	966.74219
2577.342	987.62225
2578.3372	974.07159
2579.3325	986.27881
2580.3279	997.52625
2581.3232	985.75952
2582.3186	1006.9457
2583.3137	1009.0214
2584.3091	1010.3087
2585.3044	1024.5934
2586.2998	1060.9752
2587.2952	1041.9926
2588.2903	1048.9762
2589.2856	1078.9261
2590.281	1081.0338
2591.2764	1100.9694
2592.2717	1117.0786
2593.2671	1143.2018
2594.2622	1128.1785
2595.2576	1097.5153
2596.2529	1143.7799
2597.2483	1178.3622
2598.2437	1172.8905
2599.2388	1193.1749
2600.2341	1224.6444
2601.2295	1237.2178
2602.2249	1233.3164
2603.2202	1239.994
2604.2156	1264.5824
2605.2107	1263.274
2606.2061	1296.0221
2607.2014	1274.7102
2608.1968	1311.2692
2609.1921	1361.9969
2610.1873	1349.6047
2611.1826	1351.777
2612.178	1392.932
2613.1733	1429.7987
2614.1687	1445.6195
2615.1638	1462.2972
2616.1592	1496.2209
2617.1545	1518.5262
2618.1499	1526.5073
2619.1453	1516.1431
2620.1406	1560.879
2621.1357	1597.5714
2622.1311	1582.3269
2623.1265	1611.0233
2624.1218	1652.6285
2625.1172	1673.4508
2626.1123	1712.3241
2627.1077	1690.0665
2628.103	1706.307
2629.0984	1782.4619
2630.0938	1781.8451
2631.0891	1786.6765
2632.0842	1827.4014
2633.0796	1840.051
2634.075	1867.8519
2635.0703	1934.7729
2636.0657	1959.4977
2637.0608	1939.5356
2638.0562	1952.204
2639.0515	2019.0249
2640.0469	2016.3627
2641.0422	2022.5109
2642.0374	2046.7532
2643.0327	2038.9642
2644.0281	2062.9565
2645.0234	2066.6118
2646.0188	2083.665
2647.0142	2081.689
2648.0093	2102.3149
2649.0046	2088.9915
2650	2100.8828
2650.9954	2121.0693
2651.9907	2133.3726
2652.9858	2139.5361
2653.9812	2135.467
2654.9766	2128.3982
2655.9719	2102.1875
2656.9673	2146.1946
2657.9626	2115.7559
2658.9578	2099.2031
2659.9531	2094.8186
2660.9485	2079.5798
2661.9438	2080.6638
2662.9392	2059.9744
2663.9343	2047.0045
2664.9297	2016.09
2665.925	2000.5386
2666.9204	1979.191
2667.9158	1960.2222
2668.9109	1950.0931
2669.9063	1934.7313
2670.9016	1880.6321
2671.897	1867.1813
2672.8923	1876.3281
2673.8877	1832.4521
2674.8828	1820.7952
2675.8782	1794.8676
2676.8735	1771.1327
2677.8689	1762.1443
2678.8643	1702.2476
2679.8594	1674.2793
2680.8547	1670.8572
2681.8501	1637.9319
2682.8455	1621.6538
2683.8408	1598.3146
2684.8362	1572.6702
2685.8313	1548.6416
2686.8267	1531.9261
2687.822	1475.4202
2688.8174	1479.7711
2689.8127	1473.9039
2690.8079	1417.3872
2691.8032	1381.7709
2692.7986	1375.2002
2693.7939	1361.8024
2694.7893	1365.4412
2695.7844	1300.8901
2696.7798	1305.6498
2697.7751	1286.7563
2698.7705	1250.5182
2699.7659	1235.411
2700.7612	1225.6622
2701.7563	1241.876
2702.7517	1220.5604
2703.7471	1146.5955
2704.7424	1155.8005
2705.7378	1122.5667
2706.7329	1142.7758
2707.7283	1136.2175
2708.7236	1112.6371
2709.719	1105.5785
2710.7144	1085.5491
2711.7097	1060.6002
2712.7048	1064.8998
2713.7002	1040.0055
2714.6956	1057.0253
2715.6909	1036.3488
2716.6863	1023.6182
2717.6814	1008.2963
2718.6768	993.53729
2719.6721	999.79077
2720.6675	994.0354
2721.6628	974.77863
2722.658	960.24774
2723.6533	946.35284
2724.6487	939.6311
2725.644	920.66388
2726.6394	929.2041
2727.6348	911.67267
2728.6299	932.00482
2729.6252	922.42957
2730.6206	921.90106
2731.616	905.30951
2732.6113	896.85474
2733.6064	880.79144
2734.6018	865.74469
2735.5972	872.58862
2736.5925	850.95129
2737.5879	872.58167
2738.5833	885.72784
2739.5784	865.45221
2740.5737	844.80298
2741.5691	850.59979
2742.5645	840.82617
2743.5598	835.75488
2744.5549	830.68201
2745.5503	826.0199
2746.5457	839.05353
2747.541	835.76709
2748.5364	805.2887
2749.5315	821.24298
2750.5269	834.38599
2751.5222	815.41168
2752.5176	825.58759
2753.5129	823.88586
2754.5083	815.86011
2755.5034	815.40393
2756.4988	803.22064
2757.4941	801.27679
2758.4895	787.31781
2759.4849	784.07385
2760.48	794.81348
2761.4753	791.47339
2762.4707	785.50397
2763.4661	773.41541
2764.4614	781.25653
2765.4568	776.61859
2766.4519	781.15186
2767.4473	774.2345
2768.4426	756.02789
2769.438	750.94458
2770.4333	769.23334
2771.4285	771.36505
2772.4238	767.56354
2773.4192	778.7301
2774.4146	768.89441
2775.4099	761.4566
2776.4053	764.60132
2777.4004	736.74567
2778.3958	741.83307
2779.3911	753.12817
2780.3865	756.63745
2781.3818	756.36847
2782.377	759.52972
2783.3723	750.24884
2784.3677	761.12579
2785.363	752.77679
2786.3584	763.35968
2787.3535	741.72949
2788.3489	750.25769
2789.3442	752.29352
2790.3396	768.62708
2791.335	736.19263
2792.3303	747.47479
2793.3254	741.96356
2794.3208	739.85254
2795.3162	729.77264
2796.3115	750.49829
2797.3069	764.23712
2798.302	739.49609
2799.2974	752.53662
2800.2927	749.76898
2801.2881	721.56354
2802.2834	744.24542
2803.2788	743.25842
2804.2739	752.25214
2805.2693	742.47296
2806.2646	743.13519
2807.26	743.43298
2808.2554	760.33313
2809.2505	749.78241
2810.2458	732.77679
2811.2412	734.06812
2812.2366	718.73602
2813.2319	736.09528
2814.2271	728.55267
2815.2224	757.10956
2816.2178	733.47388
2817.2131	740.90265
2818.2085	753.83563
2819.2039	746.4184
2820.199	745.4826
2821.1943	744.24554
2822.1897	739.63464
2823.1851	719.61475
2824.1804	749.30774
2825.1755	740.05493
2826.1709	751.10901
2827.1663	742.87494
2828.1616	740.87433
2829.157	747.55859
2830.1523	771.42371
2831.1475	754.84882
2832.1428	747.59967
2833.1382	733.78662
2834.1335	731.78223
2835.1289	738.64435
2836.124	762.54419
2837.1194	723.75818
2838.1147	735.47034
2839.1101	744.1037
2840.1055	724.0802
2841.1006	745.39844
2842.0959	735.03595
2843.0913	752.43048
2844.0867	740.63281
2845.082	741.5697
2846.0774	756.52002
2847.0725	739.70862
2848.0679	739.2179
2849.0632	736.32117
2850.0586	742.51575
2851.054	755.20776
2852.0491	752.26825
2853.0444	751.89911
2854.0398	734.8045
2855.0352	756.87427
2856.0305	753.8598
2857.0259	756.14746
2858.021	763.01349
2859.0164	757.67133
2860.0117	744.15247
2861.0071	753.33459
2862.0024	758.7644
2862.9976	758.64264
2863.9929	767.18866
2864.9883	757.48071
2865.9836	741.30707
2866.979	758.83301
2867.9741	765.20947
2868.9695	760.84351
2869.9648	770.37805
2870.9602	768.8609
2871.9556	786.50671
2872.9509	770.62592
2873.946	779.73669
2874.9414	786.51288
2875.9368	786.33392
2876.9321	775.36194
2877.9275	785.66364
2878.9226	768.5174
2879.918	784.77917
2880.9133	786.31647
2881.9087	780.13629
2882.9041	794.62018
2883.8994	796.4505
2884.8945	787.25867
2885.8899	798.64294
2886.8853	797.54565
2887.8806	788.1264
2888.876	784.43164
2889.8711	801.16272
2890.8665	814.23602
2891.8618	801.04065
2892.8572	792.58527
2893.8525	806.10791
2894.8477	815.6405
2895.843	817.68915
2896.8384	797.30164
2897.8337	798.66125
2898.8291	800.45129
2899.8245	805.95703
2900.8196	817.19104
2901.8149	800.37109
2902.8103	789.63776
2903.8057	807.35474
2904.801	803.63678
2905.7961	809.8252
2906.7915	807.50958
2907.7869	796.08044
2908.7822	810.14276
2909.7776	827.21442
2910.7729	823.74713
2911.7681	791.96436
2912.7634	829.02625
2913.7588	816.98065
2914.7542	807.76196
2915.7495	796.53741
2916.7446	796.22095
2917.74	796.29272
2918.7354	802.38287
2919.7307	797.71558
2920.7261	806.57983
2921.7212	810.23212
2922.7166	817.33258
2923.7119	798.18958
2924.7073	811.27673
2925.7026	792.56702
2926.698	811.59491
2927.6931	802.75531
2928.6885	800.25183
2929.6838	788.22913
2930.6792	792.23126
2931.6746	785.79773
2932.6697	804.25372
2933.665	778.25586
2934.6604	785.93768
2935.6558	782.84363
2936.6511	773.79492
2937.6465	782.06262
2938.6416	773.45813
2939.637	756.78802
2940.6323	774.88007
2941.6277	794.65009
2942.623	761.08289
2943.6182	772.62115
2944.6135	773.19672
2945.6089	766.05743
2946.6042	762.49634
2947.5996	762.22974
2948.5947	771.43439
2949.5901	763.33453
2950.5854	759.88013
2951.5808	761.09033
2952.5762	746.92078
2953.5715	728.22308
2954.5667	755.10138
2955.562	759.15021
2956.5574	745.85632
2957.5527	738.77386
2958.5481	743.61499
2959.5432	743.5957
2960.5386	740.91351
2961.5339	738.68372
2962.5293	729.54456
2963.5247	751.06073
2964.52	751.15796
2965.5151	735.06134
2966.5105	727.34619
2967.5059	713.85602
2968.5012	702.2406
2969.4966	716.44043
2970.4917	718.04449
2971.4871	731.51147
2972.4824	707.82959
2973.4778	713.94177
2974.4731	696.23541
2975.4685	700.82001
2976.4636	700.12897
2977.459	705.38477
2978.4543	701.66046
2979.4497	701.8515
2980.4451	720.03143
2981.4402	701.24933
2982.4355	694.55969
2983.4309	699.48749
2984.4263	700.26172
2985.4216	698.8894
2986.4167	703.1369
2987.4121	683.89642
2988.4075	683.98291
2989.4028	671.97028
2990.3982	678.60828
2991.3936	678.73419
2992.3887	689.49664
2993.384	672.08044
2994.3794	677.21954
2995.3748	693.01196
2996.3701	688.67413
2997.3652	699.17975
2998.3606	691.55334
2999.356	677.81299
3000.3513	671.53418
3001.3467	681.36908
3002.342	677.09515
3003.3372	660.15491
3004.3325	677.71558
3005.3279	688.21002
3006.3232	674.05762
3007.3186	677.0166
3008.3137	683.1615
3009.3091	667.05505
3010.3044	675.6665
3011.2998	686.40125
3012.2952	681.86298
3013.2903	672.66132
3014.2856	694.54565
3015.281	672.65973
3016.2764	664.14282
3017.2717	683.41217
3018.2671	668.4765
3019.2622	663.34247
3020.2576	661.38831
3021.2529	671.06238
3022.2483	678.41248
3023.2437	676.51733
3024.2388	683.20801
3025.2341	683.17151
3026.2295	677.25165
3027.2249	676.07495
3028.2202	665.11664
3029.2156	654.29095
3030.2107	662.28699
3031.2061	661.44037
3032.2014	664.5061
3033.1968	664.84155
3034.1921	655.75208
3035.1873	659.54651
3036.1826	659.21387
3037.178	669.41315
3038.1733	667.71307
3039.1687	663.76392
3040.1638	653.83496
3041.1592	651.94128
3042.1545	653.10553
3043.1499	660.89856
3044.1453	668.45251
3045.1406	668.49182
3046.1357	654.78473
3047.1311	649.26746
3048.1265	647.55261
3049.1218	655.62115
3050.1172	661.99207
3051.1123	665.85107
3052.1077	652.08856
3053.103	648.91962
3054.0984	647.5575
3055.0938	658.29443
3056.0891	666.30328
3057.0842	657.83972
3058.0796	649.97284
3059.075	663.32416
3060.0703	679.73596
3061.0657	646.09155
3062.0608	651.89612
3063.0562	654.1225
3064.0515	657.9942
3065.0469	663.88971
3066.0422	649.49347
3067.0374	666.82922
3068.0327	664.49683
3069.0281	659.64063
3070.0234	660.47119
3071.0188	657.0202
3072.0142	662.83069
3073.0093	660.97321
3074.0046	664.66992
3075	657.54297
3075.9954	639.51892
3076.9907	666.20355
3077.9858	659.95148
3078.9812	640.12219
3079.9766	677.19537
3080.9719	652.32074
3081.9673	665.11945
3082.9626	665.23438
3083.9578	667.55682
3084.9531	662.56085
3085.9485	646.74371
3086.9438	665.69055
3087.9392	655.02954
3088.9343	648.87036
3089.9297	654.91589
3090.925	661.05133
3091.9204	654.16162
3092.9158	653.51526
3093.9109	657.31696
3094.9063	680.34747
3095.9016	681.1463
3096.897	667.48767
3097.8923	650.41846
3098.8877	656.83588
3099.8828	639.92352
3100.8782	669.05774
3101.8735	651.18707
3102.8689	648.3205
3103.8643	655.9303
3104.8594	661.92352
3105.8547	650.23376
3106.8501	652.26318
3107.8455	644.16833
3108.8408	660.87006
3109.8362	665.75079
3110.8313	636.03503
3111.8267	658.15454
3112.822	655.50476
3113.8174	659.52997
3114.8127	669.14929
3115.8079	655.9823
3116.8032	655.4624
3117.7986	651.96021
3118.7939	651.80219
3119.7893	664.6994
3120.7844	640.68573
3121.7798	640.6319
3122.7751	647.91321
3123.7705	658.67664
3124.7659	654.25244
3125.7612	656.73285
3126.7563	667.41364
3127.7517	662.74792
3128.7471	675.59198
3129.7424	649.73376
3130.7378	662.53186
3131.7329	669.42834
3132.7283	666.36292
3133.7236	656.46893
3134.719	649.65466
3135.7144	655.35565
3136.7097	655.73077
3137.7048	662.14825
3138.7002	649.23779
3139.6956	642.79919
3140.6909	650.70209
3141.6863	660.7713
3142.6814	646.54175
3143.6768	652.06158
3144.6721	668.46143
3145.6675	665.30438
3146.6628	648.11859
3147.658	657.58044
3148.6533	669.41333
3149.6487	664.00989
3150.644	657.18195
3151.6394	659.89044
3152.6348	654.89063
3153.6299	666.67224
3154.6252	660.59039
3155.6206	666.96844
3156.616	665.802
3157.6113	664.50415
3158.6064	677.85248
3159.6018	668.2674
3160.5972	668.80054
3161.5925	678.24213
3162.5879	660.02875
3163.5833	669.20709
3164.5784	661.66895
3165.5737	664.66595
3166.5691	671.88214
3167.5645	680.18701
3168.5598	681.00928
3169.5549	663.0199
3170.5503	657.38208
3171.5457	666.96149
3172.541	673.51251
3173.5364	668.91925
3174.5315	678.10864
3175.5269	675.97205
3176.5222	688.02563
3177.5176	678.63049
3178.5129	675.89478
3179.5083	674.18359
3180.5034	684.97809
3181.4988	687.09784
3182.4941	671.0965
3183.4895	691.58582
3184.4849	661.35352
3185.48	679.6889
3186.4753	690.74597
3187.4707	674.75916
3188.4661	680.19543
3189.4614	681.90076
3190.4568	686.18939
3191.4519	690.41144
3192.4473	691.01184
3193.4426	690.26672
3194.438	702.40698
3195.4333	685.96686
3196.4285	683.05573
3197.4238	676.73547
3198.4192	681.84247
3199.4146	683.25
3200.4099	686.42474
3201.4053	701.11774
3202.4004	698.52887
3203.3958	699.67981
3204.3911	705.37823
3205.3865	717.83191
3206.3818	715.98425
3207.377	713.35406
3208.3723	711.24036
3209.3677	708.72888
3210.363	709.90692
3211.3584	714.86224
3212.3535	721.01257
3213.3489	715.98248
3214.3442	715.50684
3215.3396	730.03491
3216.335	713.95734
3217.3303	733.06958
3218.3254	724.7854
3219.3208	730.5791
3220.3162	733.33759
3221.3115	724.06091
3222.3069	719.50909
3223.302	716.93304
3224.2974	726.91406
3225.2927	725.4162
3226.2881	715.48792
3227.2834	702.28186
3228.2788	703.07916
3229.2739	739.71155
3230.2693	714.36682
3231.2646	723.48389
3232.26	714.06281
3233.2554	702.00879
3234.2505	711.82507
3235.2458	717.16907
3236.2412	725.29883
3237.2366	706.42169
3238.2319	696.83612
3239.2271	698.25128
3240.2224	711.95966
3241.2178	701.5423
3242.2131	697.20068
3243.2085	680.32892
3244.2039	689.07355
3245.199	692.1496
3246.1943	694.1308
3247.1897	683.93829
3248.1851	680.7392
3249.1804	686.04144
3250.1755	656.5799
3251.1709	675.53064
3252.1663	676.03082
3253.1616	673.27478
3254.157	680.01031
3255.1523	667.77704
3256.1475	673.07281
3257.1428	659.0766
3258.1382	663.68146
3259.1335	659.08276
3260.1289	677.87756
3261.124	666.49762
3262.1194	650.68011
3263.1147	641.67139
3264.1101	642.8219
3265.1055	659.56097
3266.1006	666.78253
3267.0959	666.70294
3268.0913	646.89471
3269.0867	654.35187
3270.082	657.32794
3271.0774	630.38733
3272.0725	661.52838
3273.0679	647.54388
3274.0632	639.63165
3275.0586	648.84149
3276.054	647.96869
3277.0491	644.12885
3278.0444	643.01843
3279.0398	650.87836
3280.0352	641.28119
3281.0305	626.98444
3282.0259	658.5188
3283.021	656.33289
3284.0164	637.55072
3285.0117	643.78302
3286.0071	640.05737
3287.0024	659.46161
3287.9976	656.49323
3288.9929	639.16608
3289.9883	653.85712
3290.9836	629.1546
3291.979	639.04333
3292.9741	637.37665
3293.9695	630.41034
3294.9648	641.70654
3295.9602	618.31958
3296.9556	652.67804
3297.9509	639.78601
3298.946	634.24921
3299.9414	635.091
3300.9368	650.79919
3301.9321	642.87341
3302.9275	634.79913
3303.9226	635.3006
3304.918	628.58844
3305.9133	637.85974
3306.9087	635.91925
3307.9041	629.56635
3308.8994	622.08997
3309.8945	631.16205
3310.8899	619.85449
3311.8853	643.49487
3312.8806	623.68555
3313.876	640.86761
3314.8711	628.43292
3315.8665	620.74762
3316.8618	642.96796
3317.8572	645.25427
3318.8525	617.87848
3319.8477	628.98944
3320.843	651.93604
3321.8384	649.41779
3322.8337	632.29144
3323.8291	644.81677
3324.8245	622.0152
3325.8196	633.80182
3326.8149	628.48956
3327.8103	631.46735
3328.8057	660.23175
3329.801	632.01733
3330.7961	634.72369
3331.7915	637.72314
3332.7869	632.80774
3333.7822	632.38623
3334.7776	642.03107
3335.7729	619.03888
3336.7681	635.67981
3337.7634	642.38605
3338.7588	643.30359
3339.7542	639.11292
3340.7495	651.12915
3341.7446	640.62665
3342.74	644.83484
3343.7354	635.57611
3344.7307	643.73822
3345.7261	633.74542
3346.7212	630.88275
3347.7166	637.49084
3348.7119	635.39117
3349.7073	636.07111
3350.7026	625.08215
3351.698	641.64917
3352.6931	638.73529
3353.6885	629.47974
3354.6838	620.5556
3355.6792	627.323
3356.6746	610.47272
3357.6697	627.84918
3358.665	639.93616
3359.6604	622.52661
3360.6558	646.31378
3361.6511	643.65771
3362.6465	642.04163
3363.6416	632.85596
3364.637	647.20398
3365.6323	640.76337
3366.6277	644.11121
3367.623	646.86432
3368.6182	630.62421
3369.6135	632.27527
3370.6089	642.53094
3371.6042	628.68799
3372.5996	627.27802
3373.5947	637.2132
3374.5901	633.06445
3375.5854	625.21069
3376.5808	633.88062
3377.5762	628.01794
3378.5715	634.72156
3379.5667	640.3045
3380.562	631.49182
3381.5574	639.51721
3382.5527	639.82312
3383.5481	643.32373
3384.5432	629.38361
3385.5386	630.88489
3386.5339	636.69861
3387.5293	640.08423
3388.5247	643.60114
3389.52	631.11438
3390.5151	643.57544
3391.5105	642.0072
3392.5059	623.59906
3393.5012	630.6059
3394.4966	647.06378
3395.4917	646.2196
3396.4871	624.62836
3397.4824	618.32953
3398.4778	633.06836
3399.4731	629.71802
3400.4685	624.19421
3401.4636	619.72382
3402.459	643.81696
3403.4543	614.85846
3404.4497	618.31604
3405.4451	629.50928
3406.4402	631.32269
3407.4355	632.85602
3408.4309	644.0556
3409.4263	648.66113
3410.4216	639.16254
3411.4167	640.98584
3412.4121	643.75897
3413.4075	634.54584
3414.4028	636.22644
3415.3982	617.08917
3416.3936	625.82538
3417.3887	639.23962
3418.384	638.47748
3419.3794	632.31097
3420.3748	636.88263
3421.3701	634.25726
3422.3652	629.29907
3423.3606	631.87646
3424.356	628.91925
3425.3513	645.68988
3426.3467	632.54474
3427.342	640.72986
3428.3372	614.71863
3429.3325	621.36389
3430.3279	638.47021
3431.3232	647.76965
3432.3186	631.66754
3433.3137	657.30493
3434.3091	638.7348
3435.3044	626.85852
3436.2998	635.82001
3437.2952	631.84979
3438.2903	640.42377
3439.2856	633.09131
3440.281	623.70715
3441.2764	618.34698
3442.2717	623.65253
3443.2671	637.55176
3444.2622	639.81201
3445.2576	620.9303
3446.2529	635.95734
3447.2483	629.65088
3448.2437	636.30682
3449.2388	626.96216
3450.2341	634.31866
3451.2295	633.29559
3452.2249	637.25293
3453.2202	646.42285
3454.2156	638.23523
3455.2107	641.52698
3456.2061	634.34625
3457.2014	625.77753
3458.1968	638.30109
3459.1921	637.73279
3460.1873	633.22754
3461.1826	637.99402
3462.178	637.66443
3463.1733	626.77637
3464.1687	621.42676
3465.1638	640.51691
3466.1592	629.01947
3467.1545	623.21259
3468.1499	617.98297
3469.1453	632.55212
3470.1406	636.31067
3471.1357	628.6991
3472.1311	627.22229
3473.1265	637.78815
3474.1218	629.62146
3475.1172	634.1355
3476.1123	648.38953
3477.1077	636.39569
3478.103	635.31036
3479.0984	625.31683
3480.0938	640.13678
3481.0891	633.86829
3482.0842	643.23273
3483.0796	626.28101
3484.075	635.83502
3485.0703	632.13629
3486.0657	638.88452
3487.0608	635.05157
3488.0562	637.34656
3489.0515	640.72681
3490.0469	640.05499
3491.0422	641.84613
3492.0374	644.84875
3493.0327	627.31708
3494.0281	633.18964
3495.0234	625.50616
3496.0188	653.27881
3497.0142	635.39966
3498.0093	643.69897
3499.0046	632.03815
3500	638.00903
