100	1039.5262
100.99532	1021.2444
101.99063	1038.8849
102.98595	1039.7164
103.98126	1052.9314
104.97658	1064.1509
105.97189	1021.2323
106.96722	1021.5152
107.96253	1012.668
108.95785	1009.6272
109.95316	1029.2107
110.94848	1044.7017
111.94379	1011.7364
112.93911	1007.5989
113.93443	1025.954
114.92974	1004.6298
115.92506	1047.1261
116.92037	1040.412
117.91569	1020.6102
118.91101	1025.5735
119.90633	1037.1514
120.90164	1016.0283
121.89696	1008.8548
122.89227	1012.6038
123.88759	988.18121
124.8829	987.45795
125.87822	996.79156
126.87354	1005.4901
127.86885	1009.3795
128.86417	988.12006
129.85948	987.53589
130.8548	985.22302
131.85011	976.65051
132.84543	966.06342
133.84074	970.80371
134.83606	958.28015
135.83138	949.17572
136.82669	953.15924
137.82202	926.64722
138.81734	954.495
139.81265	948.64832
140.80797	922.6217
141.80328	956.15015
142.7986	940.80731
143.79391	920.05481
144.78923	918.64038
145.78455	935.71356
146.77986	880.82837
147.77518	903.92468
148.77049	915.95123
149.76581	915.26233
150.76112	932.91016
151.75644	911.77246
152.75175	905.9859
153.74707	907.10199
154.74239	909.73663
155.7377	910.28314
156.73302	913.59766
157.72833	915.45905
158.72365	899.79932
159.71896	864.45441
160.71428	901.50824
161.70959	920.6803
162.70493	918.17188
163.70024	904.97113
164.69556	899.57172
165.69087	899.35785
166.68619	891.82275
167.6815	886.78308
168.67682	900.60114
169.67213	891.6709
170.66745	877.19556
171.66277	867.1864
172.65808	875.17725
173.6534	885.03918
174.64871	889.86145
175.64403	890.15002
176.63934	886.65973
177.63466	885.17377
178.62997	871.28821
179.62529	876.84711
180.62061	870.47479
181.61592	869.94464
182.61124	911.85248
183.60655	891.14728
184.60187	898.85608
185.59718	898.47321
186.5925	886.49646
187.58783	892.59149
188.58315	881.72028
189.57846	879.05096
190.57378	873.84204
191.56909	878.8678
192.56441	913.48676
193.55972	882.14856
194.55504	872.29279
195.55035	875.38379
196.54567	866.47357
197.54099	892.03662
198.5363	885.8562
199.53162	888.00494
200.52693	895.15955
201.52225	890.78406
202.51756	913.97687
203.51288	905.62891
204.50819	889.90326
205.50351	877.83582
206.49883	894.06458
207.49414	882.28644
208.48946	884.68793
209.48477	885.14868
210.48009	893.53662
211.4754	899.11365
212.47072	889.37347
213.46605	885.26752
214.46136	890.56696
215.45668	927.95837
216.452	907.1391
217.44731	916.56982
218.44263	924.88019
219.43794	919.00684
220.43326	914.47443
221.42857	929.69446
222.42389	923.60999
223.4192	921.49139
224.41452	935.99628
225.40984	915.21576
226.40515	911.96857
227.40047	914.72845
228.39578	913.49048
229.3911	905.15015
230.38641	909.19196
231.38173	919.07007
232.37704	931.70953
233.37236	933.90479
234.36768	895.48108
235.36299	916.07556
236.35831	903.85309
237.35362	902.50116
238.34895	928.35223
239.34427	920.27936
240.33958	908.09314
241.3349	909.16174
242.33022	914.71637
243.32553	937.71973
244.32085	931.13971
245.31616	924.14709
246.31148	935.58386
247.30679	945.90204
248.30211	905.84583
249.29742	909.64142
250.29274	909.18921
251.28806	906.73627
252.28337	899.11914
253.27869	902.77936
254.274	904.14191
255.26932	905.89252
256.26465	897.33514
257.25995	891.36035
258.25528	897.4118
259.25058	907.87183
260.24591	902.85657
261.24121	889.52734
262.23654	878.43066
263.23184	892.6936
264.22717	902.72083
265.22247	900.40887
266.2178	892.81403
267.2131	891.24866
268.20844	900.64984
269.20374	910.47375
270.19907	918.09619
271.19437	910.77716
272.1897	891.31799
273.185	880.7406
274.18033	898.17615
275.17566	907.95013
276.17096	893.83618
277.16629	864.69928
278.16159	864.08496
279.15692	877.69232
280.15222	883.23328
281.14755	883.12653
282.14285	881.84772
283.13818	868.05042
284.13348	859.65979
285.12881	863.32922
286.12411	866.08856
287.11945	875.43304
288.11475	856.1228
289.11008	851.1311
290.10538	852.18256
291.10071	858.5882
292.09601	852.1344
293.09134	864.97485
294.08664	866.16803
295.08197	867.85309
296.07727	853.10229
297.0726	838.77863
298.0679	852.98602
299.06323	869.59076
300.05856	864.77625
301.05386	851.94629
302.04919	867.81152
303.04449	834.1629
304.03983	830.38092
305.03513	839.49426
306.03046	839.776
307.02576	863.35132
308.02109	858.35767
309.01639	854.36066
310.01172	847.909
311.00702	858.07025
312.00235	864.2912
312.99765	831.16339
313.99298	816.87634
314.98828	836.1134
315.98361	850.31409
316.97891	863.32611
317.97424	853.47192
318.96954	841.67358
319.96487	841.29706
320.96017	845.07233
321.95551	846.56274
322.95081	851.2182
323.94614	844.14813
324.94144	854.11499
325.93677	858.00787
326.9321	844.53687
327.9274	842.03143
328.92273	840.25269
329.91803	828.9657
330.91336	843.45917
331.90866	858.30591
332.90399	848.48694
333.89929	841.86066
334.89462	844.96973
335.88992	841.87262
336.88525	852.56915
337.88055	834.25873
338.87589	825.87103
339.87119	836.16211
340.86652	855.03088
341.86182	833.05414
342.85715	830.47192
343.85245	826.82336
344.84778	835.07489
345.84308	850.66724
346.83841	863.92395
347.83371	840.68878
348.82904	840.11371
349.82434	845.47559
350.81967	858.06616
351.815	847.0014
352.8103	842.71533
353.80563	853.75061
354.80093	847.40192
355.79626	852.93591
356.79156	880.97101
357.7869	885.70734
358.7822	857.43787
359.77753	851.12207
360.77283	850.83563
361.76816	829.6889
362.76346	839.70758
363.75879	842.36816
364.75409	868.80402
365.74942	870.09393
366.74472	858.89111
367.74005	863.65826
368.73535	870.34161
369.73068	875.7475
370.72598	858.94122
371.72131	849.19843
372.71661	854.63629
373.71194	871.45667
374.70724	862.73016
375.70258	866.98975
376.69791	866.02844
377.69321	867.56927
378.68854	849.1391
379.68384	835.17743
380.67917	832.20325
381.67447	832.34833
382.6698	838.85663
383.6651	834.54767
384.66043	838.14819
385.65573	834.95398
386.65106	842.2204
387.64636	843.42621
388.64169	828.98724
389.63699	835.33551
390.63232	838.19373
391.62762	840.33307
392.62296	833.97876
393.61826	831.0976
394.61359	835.18359
395.60889	840.45068
396.60422	837.10248
397.59952	832.92914
398.59485	828.9104
399.59015	824.48059
400.58548	825.96399
401.58081	847.73389
402.57611	826.35236
403.57144	806.7616
404.56674	817.4726
405.56207	818.99725
406.55737	826.53162
407.5527	817.57031
408.548	829.59399
409.54333	834.67926
410.53864	838.66022
411.53397	852.95428
412.52927	844.79468
413.5246	821.85229
414.5199	819.55579
415.51523	831.59741
416.51053	822.94659
417.50586	826.71924
418.50116	835.36896
419.49649	825.5459
420.49179	838.72931
421.48712	841.71832
422.48242	815.61859
423.47775	827.30591
424.47305	828.80194
425.46838	818.78729
426.46371	825.40729
427.45901	812.63794
428.45435	831.35992
429.44965	827.58105
430.44498	815.49969
431.44028	811.07458
432.43561	809.71393
433.43091	800.80542
434.42624	809.27362
435.42154	828.9599
436.41687	820.51031
437.41217	816.49902
438.4075	822.26672
439.4028	826.39282
440.39813	820.55951
441.39343	819.29077
442.38876	826.56293
443.38406	814.93494
444.37939	813.18292
445.37469	811.16241
446.37003	819.35986
447.36533	817.59576
448.36066	829.75397
449.35596	834.20215
450.35129	818.50629
451.34662	822.58783
452.34192	822.48572
453.33725	818.83844
454.33255	808.44122
455.32788	835.34692
456.32318	834.50684
457.31851	808.91699
458.31381	808.7088
459.30914	825.1062
460.30444	821.94897
461.29977	825.3844
462.29507	810.1947
463.29041	798.24353
464.28571	817.71283
465.28104	820.83887
466.27634	820.86761
467.27167	815.46075
468.26697	811.26526
469.2623	828.31958
470.2576	798.3385
471.25293	817.05493
472.24823	841.86902
473.24356	837.97327
474.23886	824.2417
475.23419	833.11542
476.22952	819.37122
477.22482	821.75995
478.22015	825.54535
479.21545	822.49615
480.21078	834.49573
481.20609	834.43298
482.20142	827.51709
483.19672	812.29883
484.19205	805.9812
485.18735	821.45477
486.18268	819.29565
487.17798	819.75092
488.17331	832.84589
489.16861	831.45697
490.16394	825.3714
491.15924	835.41528
492.15457	820.13275
493.14987	838.65601
494.1452	836.71765
495.1405	806.79474
496.13583	804.61713
497.13113	832.13983
498.12646	821.26489
499.12177	806.61725
500.1171	793.81586
501.11243	808.44934
502.10773	834.16309
503.10306	823.1756
504.09836	822.49475
505.09369	828.78955
506.08899	831.17188
507.08432	827.10431
508.07962	811.65228
509.07495	815.00287
510.07025	813.29468
511.06558	824.96857
512.06091	811.36072
513.05621	823.7168
514.05151	822.03876
515.04681	818.00824
516.04218	821.62549
517.03748	821.32513
518.03278	802.91504
519.02808	818.73438
520.02344	793.17731
521.01874	801.2406
522.01404	827.07098
523.00934	824.75439
524.0047	807.8418
525	820.52411
525.9953	804.82843
526.99066	813.22522
527.98596	819.92493
528.98126	819.32031
529.97656	844.94171
530.97192	837.43134
531.96722	820.71655
532.96252	803.51434
533.95782	804.30151
534.95319	838.16467
535.94849	832.32404
536.94379	823.34204
537.93909	820.14557
538.93445	810.06647
539.92975	810.96283
540.92505	823.15778
541.92035	824.95923
542.91571	810.55939
543.91101	811.48004
544.90631	815.33875
545.90161	815.20062
546.89697	830.89465
547.89227	830.62646
548.88757	825.32196
549.88287	829.32196
550.87823	848.81403
551.87354	830.71216
552.86884	840.39166
553.8642	843.70386
554.8595	815.4599
555.8548	807.14648
556.8501	815.04181
557.84546	828.47687
558.84076	824.65704
559.83606	833.47772
560.83136	811.65302
561.82672	805.89545
562.82202	839.04327
563.81732	827.23553
564.81262	832.76013
565.80798	836.23279
566.80328	819.33807
567.79858	815.37158
568.79388	828.30688
569.78925	829.28387
570.78455	833.2309
571.77985	823.81335
572.77515	817.96021
573.77051	827.72369
574.76581	835.69299
575.76111	834.06451
576.75647	830.99292
577.75177	816.76727
578.74707	819.3847
579.74237	825.75446
580.73773	823.71729
581.73303	830.59863
582.72833	839.11816
583.72363	834.3045
584.71899	820.58032
585.71429	824.54126
586.70959	831.99768
587.7049	806.4743
588.70026	821.48663
589.69556	841.15033
590.69086	848.03168
591.68616	827.68561
592.68152	826.45404
593.67682	830.05536
594.67212	827.93079
595.66742	839.08044
596.66278	843.22504
597.65808	834.33777
598.65338	825.84631
599.64868	831.07208
600.64404	850.38281
601.63934	845.97821
602.63464	836.40552
603.63	848.88843
604.62531	822.23438
605.62061	843.52435
606.61591	852.87708
607.61127	858.83728
608.60657	851.0332
609.60187	831.49078
610.59717	829.70306
611.59253	836.26563
612.58783	833.4541
613.58313	830.51807
614.57843	833.22424
615.57379	842.04541
616.56909	825.99377
617.56439	844.17847
618.55969	851.61816
619.55505	839.57227
620.55035	829.1366
621.54565	834.73895
622.54095	878.82281
623.53632	852.41425
624.53162	837.38379
625.52692	847.27454
626.52228	845.87286
627.51758	830.07654
628.51288	831.85095
629.50818	855.46277
630.50354	853.56116
631.49884	840.62872
632.49414	846.63977
633.48944	856.89661
634.4848	831.474
635.4801	835.4184
636.4754	839.62604
637.4707	844.60785
638.46606	847.38019
639.46136	815.63544
640.45667	819.26636
641.45197	832.96796
642.44733	843.42621
643.44263	838.27319
644.43793	842.7926
645.43323	848.49072
646.42859	834.00586
647.42389	849.10992
648.41919	842.29279
649.41449	844.79315
650.40985	844.26453
651.40515	847.46429
652.40045	834.61334
653.39581	851.34454
654.39111	853.60474
655.38641	855.97858
656.38171	858.58838
657.37708	845.80518
658.37238	835.29205
659.36768	849.29272
660.36298	841.02014
661.35834	838.57343
662.35364	852.43829
663.34894	865.48724
664.34424	843.08765
665.3396	859.01483
666.3349	858.1701
667.3302	866.20746
668.3255	848.69617
669.32086	836.23993
670.31616	840.87213
671.31146	839.85815
672.30676	836.36713
673.30212	848.38525
674.29742	863.35461
675.29272	865.13806
676.28809	859.7804
677.28339	850.37756
678.27869	851.08649
679.27399	853.82501
680.26935	856.53595
681.26465	860.03821
682.25995	850.97894
683.25525	832.21655
684.25061	860.04663
685.24591	866.01129
686.24121	856.43079
687.23651	860.35559
688.23187	841.24939
689.22717	857.81543
690.22247	857.66522
691.21777	853.92169
692.21313	864.26862
693.20844	866.95428
694.20374	842.33752
695.19904	830.64941
696.1944	844.01288
697.1897	823.85699
698.185	836.35052
699.1803	853.43378
700.17566	844.93201
701.17096	841.50024
702.16626	868.47913
703.16162	871.73688
704.15692	868.9707
705.15222	857.24652
706.14752	855.17743
707.14288	848.3208
708.13818	855.97565
709.13348	845.77087
710.12878	852.09271
711.12415	852.08826
712.11945	851.10181
713.11475	850.12213
714.11005	869.0929
715.10541	870.52789
716.10071	861.92566
717.09601	856.35852
718.09131	848.03125
719.08667	831.96808
720.08197	840.33887
721.07727	856.19318
722.07257	878.09637
723.06793	867.99921
724.06323	850.80084
725.05853	843.88812
726.05389	846.03082
727.04919	842.05054
728.04449	844.98297
729.03979	851.37457
730.03516	841.43939
731.03046	858.69745
732.02576	841.92517
733.02106	854.51581
734.01642	869.76971
735.01172	862.93549
736.00702	855.7359
737.00232	888.17444
737.99768	876.38849
738.99298	859.41925
739.98828	878.22076
740.98358	865.70367
741.97894	857.23798
742.97424	862.51868
743.96954	876.04614
744.96484	885.91077
745.96021	875.79413
746.95551	874.05621
747.95081	875.37476
748.94611	862.2915
749.94147	845.43481
750.93677	863.87891
751.93207	864.28156
752.92743	876.79663
753.92273	891.03571
754.91803	875.31097
755.91333	844.88586
756.90869	832.87402
757.90399	846.12921
758.89929	877.94971
759.89459	872.56537
760.88995	872.52094
761.88525	870.46991
762.88055	888.55072
763.87585	883.49377
764.87122	876.34821
765.86652	860.22845
766.86182	858.62207
767.85712	896.33173
768.85248	901.3241
769.84778	863.43878
770.84308	856.75787
771.83838	884.54755
772.83374	889.84882
773.82904	874.60541
774.82434	890.47089
775.8197	884.57617
776.815	879.90509
777.8103	879.38928
778.8056	902.87769
779.80096	896.8078
780.79626	886.58813
781.79156	890.37305
782.78687	906.30103
783.78223	878.67822
784.77753	880.25323
785.77283	900.64581
786.76813	896.00861
787.76349	881.90222
788.75879	885.21777
789.75409	890.95477
790.74939	884.396
791.74475	900.625
792.74005	902.20746
793.73535	903.15039
794.73065	892.88416
795.72601	895.29797
796.72131	892.35687
797.71661	908.38116
798.71191	909.11115
799.70728	912.8924
800.70258	910.45337
801.69788	904.42902
802.69324	894.89954
803.68854	904.4585
804.68384	897.98627
805.67914	905.45264
806.6745	915.15845
807.6698	906.5332
808.6651	895.16748
809.6604	897.92444
810.65576	894.43884
811.65106	901.41058
812.64636	905.11688
813.64166	890.43024
814.63702	890.2782
815.63232	898.81256
816.62762	897.78101
817.62292	907.065
818.61829	915.84326
819.61359	907.88678
820.60889	900.87408
821.60419	895.51788
822.59955	884.16705
823.59485	908.19995
824.59015	906.55261
825.58551	918.90295
826.58081	922.31525
827.57611	932.03174
828.57141	912.31482
829.56677	910.90204
830.56207	923.15918
831.55737	912.54816
832.55267	917.6145
833.54803	921.45209
834.54333	905.99109
835.53864	920.52692
836.53394	917.76434
837.5293	936.32208
838.5246	933.70068
839.5199	922.46991
840.5152	916.45868
841.51056	899.96887
842.50586	913.43274
843.50116	935.33386
844.49646	935.20874
845.49182	926.70789
846.48712	925.94122
847.48242	934.47113
848.47772	915.16742
849.47308	927.00165
850.46838	942.26257
851.46368	937.00049
852.45905	921.00641
853.45435	916.01245
854.44965	930.46216
855.44495	930.52777
856.44031	916.67175
857.43561	932.66272
858.43091	925.99451
859.42621	933.63043
860.42157	940.91174
861.41687	952.35681
862.41217	950.16583
863.40747	934.36481
864.40283	932.38483
865.39813	946.89569
866.39343	946.57159
867.38873	948.53156
868.38409	947.75275
869.37939	949.65009
870.37469	942.08173
871.37	931.91827
872.36536	924.73547
873.36066	900.74847
874.35596	928.14301
875.35132	935.06006
876.34662	926.08179
877.34192	951.97632
878.33722	930.08685
879.33258	947.65851
880.32788	931.27277
881.32318	929.33832
882.31848	929.44196
883.31384	945.66229
884.30914	958.54517
885.30444	961.6225
886.29974	930.10339
887.2951	945.00635
888.29041	944.84259
889.28571	943.25043
890.28101	947.71686
891.27637	945.79272
892.27167	953.62701
893.26697	932.50879
894.26227	945.02521
895.25763	952.34967
896.25293	940.35577
897.24823	946.8089
898.24353	959.54199
899.23889	964.09729
900.23419	952.94592
901.22949	976.13373
902.22485	953.08856
903.22015	953.92017
904.21545	954.92383
905.21075	968.3042
906.20612	962.88031
907.20142	925.0545
908.19672	950.93994
909.19202	944.15942
910.18738	947.20703
911.18268	962.81531
912.17798	971.31622
913.17328	958.38165
914.16864	947.06805
915.16394	964.93042
916.15924	962.13586
917.15454	967.2511
918.1499	950.41064
919.1452	940.28076
920.1405	939.60938
921.1358	952.17914
922.13116	958.26227
923.12646	939.90857
924.12177	949.06555
925.11713	976.34302
926.11243	996.57227
927.10773	985.66199
928.10303	960.49683
929.09839	962.07745
930.09369	975.39954
931.08899	951.5249
932.08429	958.13654
933.07965	977.02209
934.07495	984.99835
935.07025	980.16479
936.06555	974.66254
937.06091	987.46057
938.05621	991.25464
939.05151	977.68213
940.04681	989.43726
941.04218	987.79688
942.03748	982.42633
943.03278	977.00854
944.02808	976.55432
945.02344	977.81696
946.01874	970.64197
947.01404	967.26514
948.00934	988.81396
949.0047	983.46863
950	980.19269
950.9953	985.19171
951.99066	980.79761
952.98596	973.24109
953.98126	1001.7051
954.97656	966.22339
955.97192	994.05078
956.96722	994.80756
957.96252	980.45782
958.95782	983.71667
959.95319	998.06891
960.94849	1013.9064
961.94379	1015.9078
962.93909	1001.4173
963.93445	975.66132
964.92975	981.70227
965.92505	993.45374
966.92035	989.16168
967.91571	1006.794
968.91101	1004.3559
969.90631	1013.5941
970.90161	998.41125
971.89697	1002.7793
972.89227	1022.4305
973.88757	1018.2667
974.88287	997.67523
975.87823	998.9848
976.87354	1000.8983
977.86884	982.72754
978.8642	1013.1005
979.8595	1007.3914
980.8548	996.03351
981.8501	1002.1422
982.84546	1018.5486
983.84076	1012.9064
984.83606	1011.5352
985.83136	1042.7102
986.82672	996.4057
987.82202	996.73901
988.81732	1015.8821
989.81262	1017.2363
990.80798	1010.6189
991.80328	1008.9462
992.79858	996.41748
993.79388	1015.2261
994.78925	1003.8055
995.78455	1033.9398
996.77985	1050.04
997.77515	1042.135
998.77051	1031.87
999.76581	1033.7372
1000.7611	1033.3646
1001.7565	1033.2791
1002.7518	1021.1912
1003.7471	1024.9474
1004.7424	1024.385
1005.7377	1028.8004
1006.733	1033.3778
1007.7283	1017.8249
1008.7236	1038.9283
1009.719	1057.297
1010.7143	1053.9369
1011.7096	1056.4707
1012.7049	1064.0981
1013.7003	1046.7657
1014.6956	1021.2408
1015.6909	1027.2114
1016.6862	1029.2611
1017.6815	1056.1177
1018.6768	1041.3063
1019.6721	1055.1653
1020.6674	1058.2628
1021.6628	1051.4963
1022.6581	1053.8026
1023.6534	1055.3984
1024.6487	1050.2637
1025.644	1068.2954
1026.6394	1089.0895
1027.6346	1072.7289
1028.63	1068.9246
1029.6252	1069.8765
1030.6206	1067.2832
1031.616	1069.9978
1032.6112	1084.2847
1033.6066	1050.087
1034.6019	1060.4604
1035.5972	1066.0668
1036.5925	1079.9873
1037.5878	1089.9578
1038.5831	1094.0806
1039.5785	1092.4207
1040.5737	1083.6848
1041.5691	1072.1127
1042.5645	1081.2161
1043.5597	1084.875
1044.5551	1074.1294
1045.5503	1094.88
1046.5457	1108.8561
1047.541	1095.2854
1048.5363	1091.3535
1049.5316	1099.5372
1050.527	1099.6565
1051.5222	1120.0372
1052.5176	1110.1093
1053.5129	1099.6064
1054.5082	1095.5189
1055.5035	1107.9186
1056.4988	1109.1536
1057.4941	1083.1385
1058.4895	1102.8888
1059.4847	1113.4409
1060.4801	1131.7311
1061.4755	1128.1007
1062.4707	1128.303
1063.4661	1136.3398
1064.4613	1139.2328
1065.4567	1122.4869
1066.452	1115.03
1067.4473	1125.307
1068.4426	1118.291
1069.438	1141.2959
1070.4332	1135.6974
1071.4286	1128.5964
1072.4238	1147.8834
1073.4192	1164.8678
1074.4146	1154.1237
1075.4098	1135.5844
1076.4052	1133.4652
1077.4005	1157.6366
1078.3958	1162.4502
1079.3911	1139.4213
1080.3865	1155.9847
1081.3817	1174.5464
1082.3771	1157.8926
1083.3723	1151.6135
1084.3677	1150.4099
1085.363	1158.5179
1086.3583	1149.7025
1087.3536	1147.2643
1088.349	1145.3503
1089.3442	1146.824
1090.3396	1165.011
1091.3348	1171.2596
1092.3302	1174.6217
1093.3256	1143.8998
1094.3208	1167.2947
1095.3162	1174.6627
1096.3115	1182.7682
1097.3068	1195.1788
1098.3021	1188.6492
1099.2974	1164.9102
1100.2927	1152.733
1101.2881	1179.1432
1102.2833	1181.2065
1103.2787	1188.8138
1104.274	1185.6282
1105.2693	1232.2067
1106.2646	1228.361
1107.26	1220.4802
1108.2552	1217.7869
1109.2506	1232.0054
1110.2458	1223.8826
1111.2412	1217.8909
1112.2366	1191.0983
1113.2318	1229.8112
1114.2272	1220.1281
1115.2225	1216.3888
1116.2178	1234.137
1117.2131	1244.5638
1118.2084	1224.6956
1119.2037	1239.1952
1120.1991	1241.8868
1121.1943	1234.2097
1122.1897	1241.1232
1123.1851	1269.4385
1124.1803	1291.6884
1125.1757	1274.8743
1126.171	1250.6237
1127.1663	1258.0725
1128.1616	1257.9486
1129.1569	1255.4452
1130.1522	1243.3159
1131.1476	1255.3737
1132.1428	1247.1764
1133.1382	1248.6094
1134.1335	1272.4258
1135.1288	1256.2078
1136.1241	1267.1505
1137.1194	1294.271
1138.1147	1266.6733
1139.1101	1280.2729
1140.1053	1263.4039
1141.1007	1254.4292
1142.0961	1258.3704
1143.0913	1282.3474
1144.0867	1312.7942
1145.0819	1303.8357
1146.0773	1260.3063
1147.0726	1289.7266
1148.0679	1260.4303
1149.0632	1282.6547
1150.0586	1293.6013
1151.0538	1309.0588
1152.0492	1294.3877
1153.0446	1282.0432
1154.0398	1300.5098
1155.0352	1296.7581
1156.0304	1259.1433
1157.0258	1290.5514
1158.0211	1282.9771
1159.0164	1282.8236
1160.0117	1291.7515
1161.0071	1266.3883
1162.0023	1284.8245
1162.9977	1313.3073
1163.9929	1298.0337
1164.9883	1265.5195
1165.9836	1305.4083
1166.9789	1345.3073
1167.9742	1329.0209
1168.9696	1299.201
1169.9648	1283.8708
1170.9602	1293.4639
1171.9554	1302.0298
1172.9508	1297.9191
1173.9462	1290.8187
1174.9414	1305.0065
1175.9368	1298.0679
1176.9321	1323.5726
1177.9274	1336.4667
1178.9227	1315.9314
1179.9181	1316.5138
1180.9133	1337.3818
1181.9087	1316.5188
1182.9039	1321.4022
1183.8993	1313.064
1184.8947	1296.7793
1185.8899	1301.6409
1186.8853	1318.8889
1187.8806	1342.8506
1188.8759	1352.0219
1189.8712	1339.2262
1190.8665	1344.4773
1191.8618	1356.3811
1192.8572	1363.3285
1193.8524	1357.7552
1194.8478	1333.5033
1195.8431	1336.125
1196.8384	1365.7626
1197.8337	1357.8502
1198.829	1382.7404
1199.8243	1366.9463
1200.8197	1369.1689
1201.8149	1382.0079
1202.8103	1382.6101
1203.8057	1374.7024
1204.8009	1382.967
1205.7963	1380.9701
1206.7916	1394.7241
1207.7869	1387.2515
1208.7822	1388.9182
1209.7775	1375.9385
1210.7728	1382.7758
1211.7682	1389.962
1212.7634	1395.7026
1213.7588	1415.891
1214.7542	1430.0608
1215.7494	1430.8085
1216.7448	1424.3665
1217.74	1427.311
1218.7354	1415.7119
1219.7307	1420.3777
1220.726	1408.9366
1221.7213	1437.093
1222.7167	1464.2819
1223.7119	1492.1584
1224.7073	1449.3273
1225.7026	1515.3746
1226.6979	1490.3373
1227.6932	1476.1847
1228.6885	1516.2842
1229.6838	1505.4446
1230.6792	1505.6427
1231.6744	1523.3583
1232.6698	1537.3441
1233.6652	1546.2036
1234.6604	1552.5895
1235.6558	1500.3945
1236.651	1500.6285
1237.6464	1540.8751
1238.6417	1547.4276
1239.637	1574.3601
1240.6323	1573.1558
1241.6277	1590.213
1242.6229	1593.2841
1243.6183	1598.5963
1244.6135	1600.4019
1245.6089	1590.5421
1246.6042	1594.4768
1247.5995	1627.0426
1248.5948	1640.9741
1249.5902	1624.652
1250.5854	1650.8406
1251.5808	1671.777
1252.5762	1668.5819
1253.5714	1684.9583
1254.5668	1702.6368
1255.562	1722.6774
1256.5574	1749.3911
1257.5527	1782.1827
1258.548	1782.3145
1259.5433	1766.636
1260.5387	1793.9727
1261.5339	1823.1908
1262.5293	1821.8754
1263.5245	1816.2794
1264.5199	1859.8765
1265.5153	1884.8231
1266.5105	1870.7777
1267.5059	1918.4011
1268.5012	1927.4283
1269.4965	1948.4036
1270.4918	1960.5377
1271.4871	1989.4176
1272.4824	2016.7556
1273.4778	2039.8385
1274.473	2040.4215
1275.4684	2072.0122
1276.4637	2119.782
1277.459	2127.3955
1278.4543	2135.2727
1279.4497	2182.9294
1280.4449	2261.0164
1281.4403	2257.8762
1282.4355	2263.1008
1283.4309	2292.001
1284.4263	2341.3484
1285.4215	2404.6431
1286.4169	2473.49
1287.4122	2529.7207
1288.4075	2531.5144
1289.4028	2541.0808
1290.3981	2600.1558
1291.3934	2608.5466
1292.3888	2651.343
1293.384	2709.1335
1294.3794	2783.5378
1295.3748	2874.7117
1296.37	2940.0151
1297.3654	3013.1184
1298.3606	3067.5125
1299.356	3115.3843
1300.3513	3214.2043
1301.3466	3237.8145
1302.3419	3323.593
1303.3373	3442.7407
1304.3325	3417.2881
1305.3279	3529.3342
1306.3232	3668.5964
1307.3185	3751.4539
1308.3138	3803.0215
1309.3091	3935.0862
1310.3044	4038.1277
1311.2998	4080.2598
1312.295	4129.7935
1313.2904	4237.9185
1314.2858	4305.187
1315.281	4421.2256
1316.2764	4481.3677
1317.2716	4608.4102
1318.267	4655.5234
1319.2623	4697.7197
1320.2576	4779.7734
1321.2529	4870.5972
1322.2483	4904.6924
1323.2435	4979.1938
1324.2389	5037.9185
1325.2343	4996.1782
1326.2295	5049.0356
1327.2249	5100.7593
1328.2201	5029.5566
1329.2155	5006.6953
1330.2108	4989.1626
1331.2061	4926.8818
1332.2014	4873.4683
1333.1968	4807.2749
1334.192	4772.6563
1335.1874	4697.9541
1336.1826	4653.4141
1337.178	4599.2964
1338.1733	4449.3154
1339.1686	4354.4932
1340.1639	4251.6157
1341.1593	4171.707
1342.1545	4039.8025
1343.1499	3969.4604
1344.1451	3891.5083
1345.1405	3787.8315
1346.1359	3713.981
1347.1311	3630.4578
1348.1265	3526.5864
1349.1218	3442.8845
1350.1171	3369.8362
1351.1124	3282.7053
1352.1078	3204.2617
1353.103	3158.4299
1354.0984	3083.4792
1355.0936	3000.2124
1356.089	2930.5222
1357.0844	2845.0901
1358.0796	2786.4595
1359.075	2753.4951
1360.0703	2711.176
1361.0656	2702.0476
1362.0609	2640.7148
1363.0562	2603.4229
1364.0515	2509.3938
1365.0469	2473.6516
1366.0421	2439.7671
1367.0375	2398.8604
1368.0328	2364.6968
1369.0281	2346.1448
1370.0234	2292.9497
1371.0187	2258.9895
1372.014	2220.2056
1373.0094	2206.0781
1374.0046	2183.0298
1375	2134.9209
1375.9954	2105.1704
1376.9906	2092.6594
1377.986	2086.5745
1378.9813	2040.5901
1379.9766	2040.3826
1380.9719	2033.5453
1381.9672	2033.3586
1382.9625	2009.1703
1383.9579	1974.932
1384.9531	1963.0076
1385.9485	1929.9933
1386.9438	1875.1158
1387.9391	1884.9958
1388.9344	1863.8752
1389.9297	1904.1094
1390.925	1900.1869
1391.9204	1848.5057
1392.9156	1860.656
1393.911	1835.8403
1394.9064	1831.6887
1395.9016	1807.9783
1396.897	1800.0598
1397.8922	1796.5083
1398.8876	1805.0938
1399.8829	1797.3242
1400.8782	1734.9312
1401.8735	1766.1417
1402.8689	1776.5699
1403.8641	1784.0574
1404.8595	1766.9061
1405.8549	1746.9979
1406.8501	1727.6531
1407.8455	1705.693
1408.8407	1699.228
1409.8361	1716.8704
1410.8314	1724.6233
1411.8267	1702.9508
1412.822	1690.3969
1413.8174	1688.6539
1414.8126	1689.6952
1415.808	1727.6525
1416.8032	1674.6688
1417.7986	1664.494
1418.7939	1668.2905
1419.7892	1663.1174
1420.7845	1689.8746
1421.7799	1686.1389
1422.7751	1667.1636
1423.7705	1653.6155
1424.7657	1644.2037
1425.7611	1663.5647
1426.7565	1662.2207
1427.7517	1638.9484
1428.7471	1611.632
1429.7424	1641.7557
1430.7377	1673.0903
1431.733	1661.0581
1432.7284	1604.4899
1433.7236	1610.6002
1434.719	1638.4907
1435.7142	1592.1201
1436.7096	1610.8538
1437.705	1638.4734
1438.7002	1657.3221
1439.6956	1650.8771
1440.6909	1612.4965
1441.6862	1619.04
1442.6815	1641.4692
1443.6768	1613.6843
1444.6721	1617.8823
1445.6675	1648.7128
1446.6627	1634.6967
1447.6581	1624.9534
1448.6534	1595.1898
1449.6487	1618.1351
1450.644	1600.422
1451.6394	1600.7625
1452.6346	1609.5896
1453.63	1608.2468
1454.6252	1623.8219
1455.6206	1639.3004
1456.616	1626.2832
1457.6112	1608.4258
1458.6066	1583.4753
1459.6019	1595.646
1460.5972	1583.3654
1461.5925	1603.7834
1462.5878	1622.1501
1463.5831	1630.0607
1464.5785	1613.8093
1465.5737	1622.9685
1466.5691	1601.8042
1467.5645	1593.8035
1468.5597	1606.7343
1469.5551	1607.3363
1470.5503	1608.2773
1471.5457	1590.2996
1472.541	1621.611
1473.5363	1608.3198
1474.5316	1572.9288
1475.527	1620.569
1476.5222	1612.5646
1477.5176	1603.2189
1478.5129	1598.7885
1479.5082	1629.2194
1480.5035	1642.363
1481.4988	1624.2567
1482.4941	1636.0887
1483.4895	1626.2372
1484.4847	1640.2108
1485.4801	1640.3348
1486.4755	1652.5189
1487.4707	1654.161
1488.4661	1635.5242
1489.4613	1634.8751
1490.4567	1654.5891
1491.452	1622.7559
1492.4473	1661.4867
1493.4426	1699.2866
1494.438	1662.9609
1495.4332	1650.3672
1496.4286	1645.2002
1497.4238	1661.2878
1498.4192	1675.9341
1499.4146	1656.9734
1500.4098	1691.5797
1501.4052	1712.7416
1502.4005	1685.2358
1503.3958	1695.8206
1504.3911	1729.7148
1505.3865	1729.6027
1506.3817	1689.5674
1507.3771	1705.0254
1508.3723	1723.2086
1509.3677	1752.8689
1510.363	1752.1387
1511.3583	1722.1102
1512.3536	1728.0957
1513.349	1792.0161
1514.3442	1763.866
1515.3396	1773.667
1516.3348	1814.3541
1517.3302	1776.8595
1518.3256	1788.0704
1519.3208	1805.4592
1520.3162	1817.2958
1521.3115	1824.1331
1522.3068	1859.274
1523.3021	1827.3834
1524.2974	1821.095
1525.2927	1855.1007
1526.2881	1882.9354
1527.2833	1895.2445
1528.2787	1867.8403
1529.274	1904.5283
1530.2693	1967.4893
1531.2646	1987.1841
1532.26	1963.2572
1533.2552	1990.4021
1534.2506	2000.2369
1535.2458	2020.1223
1536.2412	2060.4155
1537.2366	2079.0967
1538.2318	2087.7942
1539.2272	2111.5051
1540.2225	2122.1873
1541.2178	2158.6355
1542.2131	2214.4998
1543.2084	2238.72
1544.2037	2294.4224
1545.1991	2295.3323
1546.1943	2364.7302
1547.1897	2440.6646
1548.1851	2447.6826
1549.1803	2499.2314
1550.1757	2540.5979
1551.171	2608.8225
1552.1663	2660.0437
1553.1616	2717.7163
1554.1569	2737.6882
1555.1522	2816.8232
1556.1476	2875.4709
1557.1428	2931.8503
1558.1382	3003.8706
1559.1335	3096.8464
1560.1288	3143.948
1561.1241	3245.457
1562.1194	3264.085
1563.1147	3411.7185
1564.1101	3467.1338
1565.1053	3523.0466
1566.1007	3576.6687
1567.0961	3647.1401
1568.0913	3681.8264
1569.0867	3743.3872
1570.0819	3803.9312
1571.0773	3826.8655
1572.0726	3851.9128
1573.0679	3887.051
1574.0632	3900.0586
1575.0586	3947.2378
1576.0538	3894.855
1577.0492	3894.8284
1578.0446	3928.7546
1579.0398	3818.1841
1580.0352	3785.2209
1581.0304	3706.3394
1582.0258	3742.6069
1583.0211	3654.314
1584.0164	3645.4409
1585.0117	3557.8535
1586.0071	3516.5186
1587.0023	3491.9512
1587.9977	3427.4595
1588.9929	3358.5391
1589.9883	3378.9812
1590.9836	3382.9175
1591.9789	3344.1118
1592.9742	3289.0459
1593.9696	3294.0911
1594.9648	3286.0649
1595.9602	3282.1931
1596.9554	3268.5623
1597.9508	3199.8528
1598.9462	3213.0396
1599.9414	3218.7095
1600.9368	3209.4841
1601.9321	3216.7571
1602.9274	3244.5957
1603.9227	3262.073
1604.9181	3215.6355
1605.9133	3162.0051
1606.9087	3165.6301
1607.9039	3109.8726
1608.8993	3077.675
1609.8947	3016.3931
1610.8899	2982.387
1611.8853	2896.1345
1612.8806	2840.4976
1613.8759	2792.5
1614.8712	2732.6252
1615.8665	2672.1011
1616.8618	2590.2705
1617.8572	2537.429
1618.8524	2459.7368
1619.8478	2375.3376
1620.8431	2298.7224
1621.8384	2272.2144
1622.8337	2266.9775
1623.829	2190.176
1624.8243	2153.0061
1625.8197	2106.1909
1626.8149	2078.3047
1627.8103	2010.6917
1628.8057	2000.3223
1629.8009	1969.3049
1630.7963	1922.1683
1631.7916	1900.1307
1632.7869	1918.1124
1633.7822	1864.4044
1634.7775	1804.9689
1635.7728	1847.1434
1636.7682	1824.0709
1637.7634	1798.8494
1638.7588	1796.4139
1639.7542	1767.9067
1640.7494	1733.7991
1641.7448	1727.3329
1642.74	1693.95
1643.7354	1717.5823
1644.7307	1706.9902
1645.726	1699.9158
1646.7213	1684.1503
1647.7167	1660.145
1648.7119	1636.455
1649.7073	1633.0265
1650.7026	1668.2882
1651.6979	1641.7681
1652.6932	1618.106
1653.6885	1562.8105
1654.6838	1602.1436
1655.6792	1571.1542
1656.6744	1591.2253
1657.6698	1598.2345
1658.6652	1596.3057
1659.6604	1561.3865
1660.6558	1547.2222
1661.651	1563.502
1662.6464	1567.6686
1663.6417	1560.7889
1664.637	1552.2823
1665.6323	1542.3185
1666.6277	1546.3087
1667.6229	1551.0433
1668.6183	1549.3427
1669.6135	1526.5133
1670.6089	1540.3405
1671.6042	1518.0763
1672.5995	1523.4418
1673.5948	1519.2778
1674.5902	1513.4418
1675.5854	1518.2
1676.5808	1534.6106
1677.5762	1533.9041
1678.5714	1515.1375
1679.5668	1512.5404
1680.562	1497.7424
1681.5574	1512.4895
1682.5527	1507.957
1683.548	1496.7792
1684.5433	1498.4816
1685.5387	1491.9861
1686.5339	1470.7242
1687.5293	1489.1656
1688.5245	1491.6661
1689.5199	1503.3611
1690.5153	1493.8146
1691.5105	1471.3069
1692.5059	1473.854
1693.5012	1486.5658
1694.4965	1495.9481
1695.4918	1498.1317
1696.4871	1493.9736
1697.4824	1495.0314
1698.4778	1482.8291
1699.473	1472.459
1700.4684	1478.6034
1701.4637	1470.0237
1702.459	1459.2633
1703.4543	1479.708
1704.4497	1471.3759
1705.4449	1479.9226
1706.4403	1443.5321
1707.4355	1489.3474
1708.4309	1482.4246
1709.4263	1483.8586
1710.4215	1478.3984
1711.4169	1500.5409
1712.4122	1455.8838
1713.4075	1494.484
1714.4028	1502.9211
1715.3981	1503.7668
1716.3934	1498.9996
1717.3888	1463.9608
1718.384	1485.229
1719.3794	1471.0909
1720.3748	1443.7159
1721.37	1483.0693
1722.3654	1507.4659
1723.3606	1486.0851
1724.356	1463.6897
1725.3513	1473.6072
1726.3466	1467.5796
1727.3419	1464.7598
1728.3373	1471.1971
1729.3325	1465.1606
1730.3279	1473.3793
1731.3232	1470.9724
1732.3185	1447.3757
1733.3138	1454.942
1734.3091	1475.4478
1735.3044	1483.3383
1736.2998	1496.1693
1737.295	1495.371
1738.2904	1512.9137
1739.2858	1507.7772
1740.281	1498.1111
1741.2764	1475.407
1742.2716	1482.3224
1743.267	1457.4481
1744.2623	1482.7853
1745.2576	1464.0852
1746.2529	1486.1577
1747.2483	1497.8977
1748.2435	1451.0618
1749.2389	1479.1838
1750.2343	1454.1379
1751.2295	1473.1381
1752.2249	1480.7722
1753.2201	1489.1925
1754.2155	1507.3342
1755.2108	1502.9705
1756.2061	1497.2516
1757.2014	1472.4994
1758.1968	1464.6047
1759.192	1485.7451
1760.1874	1465.0984
1761.1826	1480.464
1762.178	1477.4662
1763.1733	1499.5337
1764.1686	1505.7909
1765.1639	1504.9768
1766.1593	1470.777
1767.1545	1474.7157
1768.1499	1510.0723
1769.1451	1488.714
1770.1405	1490.7024
1771.1359	1510.3477
1772.1311	1472.4214
1773.1265	1473.3958
1774.1218	1479.5576
1775.1171	1505.9058
1776.1124	1531.6188
1777.1078	1494.4716
1778.103	1510.4258
1779.0984	1505.4083
1780.0936	1509.4346
1781.089	1532.4595
1782.0844	1506.4539
1783.0796	1500.5284
1784.075	1482.5001
1785.0703	1520.9003
1786.0656	1506.9449
1787.0609	1526.3959
1788.0562	1523.1483
1789.0515	1517.3556
1790.0469	1474.1664
1791.0421	1473.6866
1792.0375	1516.4326
1793.0328	1516.6035
1794.0281	1482.5927
1795.0234	1536.7118
1796.0187	1517.5361
1797.014	1526.8829
1798.0094	1533.5266
1799.0046	1508.5145
1800	1529.1925
1800.9954	1498.4829
1801.9906	1520.4144
1802.986	1517.0739
1803.9813	1535.9392
1804.9766	1551.0691
1805.9719	1501.8143
1806.9672	1522.6726
1807.9625	1525.3768
1808.9579	1489.491
1809.9531	1529.6768
1810.9485	1500.7067
1811.9438	1487.7324
1812.9391	1523.5254
1813.9344	1500.8596
1814.9297	1494.4706
1815.925	1507.7191
1816.9204	1517.1833
1817.9156	1508.5267
1818.911	1526.3044
1819.9064	1526.6642
1820.9016	1517.806
1821.897	1508.906
1822.8922	1528.6208
1823.8876	1505.9449
1824.8829	1490.8585
1825.8782	1499.0652
1826.8735	1517.9565
1827.8689	1534.9948
1828.8641	1531.0764
1829.8595	1513.7999
1830.8549	1526.7268
1831.8501	1529.5663
1832.8455	1511.1364
1833.8407	1499.1837
1834.8361	1519.0229
1835.8314	1524.5067
1836.8267	1531.6786
1837.822	1566.7064
1838.8174	1543.8308
1839.8126	1541.187
1840.808	1520.493
1841.8032	1531.3296
1842.7986	1548.8707
1843.7939	1547.641
1844.7892	1532.0048
1845.7845	1535.5405
1846.7799	1550.0321
1847.7751	1550.3284
1848.7705	1553.0482
1849.7657	1520.163
1850.7611	1533.2538
1851.7565	1547.8303
1852.7517	1565.7469
1853.7471	1549.4625
1854.7424	1525.5612
1855.7377	1571.8167
1856.733	1530.7419
1857.7284	1556.1434
1858.7236	1542.8281
1859.719	1565.444
1860.7142	1568.3889
1861.7096	1531.3473
1862.705	1518.3638
1863.7002	1548.312
1864.6956	1528.3862
1865.6909	1558.9901
1866.6862	1555.5807
1867.6815	1542.1957
1868.6768	1539.5643
1869.6721	1537.5944
1870.6675	1553.0465
1871.6627	1590.9634
1872.6581	1594.1399
1873.6534	1561.6472
1874.6487	1556.7286
1875.644	1564.67
1876.6394	1540.8942
1877.6346	1558.7334
1878.63	1564.1414
1879.6252	1555.8468
1880.6206	1569.324
1881.616	1557.4841
1882.6112	1569.2234
1883.6066	1562.1171
1884.6019	1576.1909
1885.5972	1586.5149
1886.5925	1560.4967
1887.5878	1546.0721
1888.5831	1532.7805
1889.5785	1576.7041
1890.5737	1558.7427
1891.5691	1594.3792
1892.5645	1560.519
1893.5597	1537.0925
1894.5551	1520.5903
1895.5503	1597.3905
1896.5457	1598.5455
1897.541	1532.7902
1898.5363	1578.1083
1899.5316	1568.6003
1900.527	1565.6267
1901.5222	1557.8933
1902.5176	1565.8231
1903.5129	1588.688
1904.5082	1564.1063
1905.5035	1566.5524
1906.4988	1582.9238
1907.4941	1593.5878
1908.4895	1590.2358
1909.4847	1564.2318
1910.4801	1593.7233
1911.4755	1589.3092
1912.4707	1547.0361
1913.4661	1602.3174
1914.4613	1584.8052
1915.4567	1586.355
1916.452	1601.9406
1917.4473	1604.8287
1918.4426	1609.6987
1919.438	1573.8984
1920.4332	1568.328
1921.4286	1563.0581
1922.4238	1605.9324
1923.4192	1584.6902
1924.4146	1588.5574
1925.4098	1568.4717
1926.4052	1581.9542
1927.4005	1596.4016
1928.3958	1616.3168
1929.3911	1581.9741
1930.3865	1584.3235
1931.3817	1589.6198
1932.3771	1602.5031
1933.3723	1612.0168
1934.3677	1587.9268
1935.363	1592.1295
1936.3583	1619.2859
1937.3536	1597.0282
1938.349	1632.576
1939.3442	1620.2673
1940.3396	1615.7533
1941.3348	1591.9537
1942.3302	1609.7588
1943.3256	1611.8461
1944.3208	1628.5129
1945.3162	1623.6537
1946.3115	1617.0266
1947.3068	1612.3365
1948.3021	1660.3575
1949.2974	1622.9788
1950.2927	1599.8806
1951.2881	1636.7019
1952.2833	1640.7318
1953.2787	1611.9161
1954.274	1632.7648
1955.2693	1644.8116
1956.2646	1610.907
1957.26	1630.0437
1958.2552	1628.0532
1959.2506	1610.7001
1960.2458	1621.0176
1961.2412	1619.6355
1962.2366	1629.8262
1963.2318	1609.2625
1964.2272	1637.359
1965.2225	1664.0642
1966.2178	1650.1686
1967.2131	1599.8822
1968.2084	1626.7704
1969.2037	1674.1481
1970.1991	1658.0215
1971.1943	1612.7803
1972.1897	1634.1006
1973.1851	1682.9329
1974.1803	1675.1301
1975.1757	1670.4115
1976.171	1639.177
1977.1663	1613.0364
1978.1616	1645.4683
1979.1569	1643.3181
1980.1522	1645.4264
1981.1476	1646.2762
1982.1428	1642.9454
1983.1382	1633.1376
1984.1335	1631.1167
1985.1288	1648.963
1986.1241	1638.13
1987.1194	1646.3143
1988.1147	1661.455
1989.1101	1636.7229
1990.1053	1628.1311
1991.1007	1615.8501
1992.0961	1617.2515
1993.0913	1646.5361
1994.0867	1637.9823
1995.0819	1690.4164
1996.0773	1678.8706
1997.0726	1640.3093
1998.0679	1633.0485
1999.0632	1631.1438
2000.0586	1655.8888
2001.0538	1690.1996
2002.0492	1691.0007
2003.0446	1680.6106
2004.0398	1647.4111
2005.0352	1634.9441
2006.0304	1621.9601
2007.0258	1657.0719
2008.0211	1700.9137
2009.0164	1714.2115
2010.0117	1691.0554
2011.0071	1642.0468
2012.0023	1701.2391
2012.9977	1705.7739
2013.9929	1688.6427
2014.9883	1678.0334
2015.9836	1674.9529
2016.9789	1678.7477
2017.9742	1663.0825
2018.9696	1691.5082
2019.9648	1692.1956
2020.9602	1688.0425
2021.9554	1702.449
2022.9508	1708.9335
2023.9462	1676.67
2024.9414	1708.776
2025.9368	1690.9358
2026.9321	1680.0603
2027.9274	1675.0276
2028.9227	1654.1597
2029.9181	1685.2964
2030.9133	1693.9205
2031.9087	1724.3472
2032.9039	1715.5991
2033.8993	1692.1031
2034.8947	1721.5289
2035.8899	1648.024
2036.8853	1635.8329
2037.8806	1668.0944
2038.8759	1712.8503
2039.8712	1697.9402
2040.8665	1683.4875
2041.8618	1709.2507
2042.8572	1712.8403
2043.8524	1729.3523
2044.8478	1692.2966
2045.8431	1706.447
2046.8384	1704.0902
2047.8337	1699.4655
2048.8291	1703.6139
2049.8245	1744.349
2050.8196	1708.2057
2051.8149	1675.683
2052.8103	1682.9806
2053.8057	1722.9414
2054.801	1723.4459
2055.7961	1711.4269
2056.7915	1718.9596
2057.7869	1715.2527
2058.7822	1740.8331
2059.7776	1698.6801
2060.7729	1712.5244
2061.7681	1739.0245
2062.7634	1728.9458
2063.7588	1707.6884
2064.7542	1705.0432
2065.7495	1701.606
2066.7446	1704.1721
2067.74	1718.3616
2068.7354	1723.4478
2069.7307	1729.2249
2070.7261	1706.3224
2071.7212	1722.5645
2072.7166	1722.271
2073.7119	1716.1179
2074.7073	1718.4374
2075.7026	1756.027
2076.698	1739.1152
2077.6931	1691.4666
2078.6885	1713.8572
2079.6838	1757.2517
2080.6792	1724.355
2081.6746	1697.5632
2082.6697	1717.3846
2083.665	1746.9445
2084.6604	1723.2169
2085.6558	1698.4248
2086.6511	1703.4255
2087.6465	1733.7913
2088.6416	1714.8353
2089.637	1746.8687
2090.6323	1716.6422
2091.6277	1743.7288
2092.623	1712.4829
2093.6182	1741.459
2094.6135	1765.177
2095.6089	1757.9785
2096.6042	1732.1949
2097.5996	1749.8147
2098.5947	1757.4357
2099.5901	1728.2611
2100.5854	1750.8889
2101.5808	1770.7292
2102.5762	1756.1456
2103.5715	1775.5823
2104.5667	1737.5676
2105.562	1750.0385
2106.5574	1791.4803
2107.5527	1808.3973
2108.5481	1779.835
2109.5432	1785.2611
2110.5386	1762.6343
2111.5339	1774.5927
2112.5293	1809.7426
2113.5247	1777.3344
2114.52	1745.0347
2115.5151	1794.244
2116.5105	1832.0477
2117.5059	1784.5554
2118.5012	1812.3942
2119.4966	1802.2251
2120.4917	1802.8573
2121.4871	1760.1018
2122.4824	1773.4938
2123.4778	1829.9149
2124.4731	1792.4065
2125.4685	1785.7878
2126.4636	1803.0306
2127.459	1793.9073
2128.4543	1802.1815
2129.4497	1796.6676
2130.4451	1793.1696
2131.4402	1811.6556
2132.4355	1781.5195
2133.4309	1805.9565
2134.4263	1821.2327
2135.4216	1829.7089
2136.4167	1827.5898
2137.4121	1828.7786
2138.4075	1796.2673
2139.4028	1823.9229
2140.3982	1834.3284
2141.3936	1783.7693
2142.3887	1828.2578
2143.384	1783.8435
2144.3794	1810.9894
2145.3748	1822.4286
2146.3701	1820.2018
2147.3652	1842.4032
2148.3606	1836.3551
2149.356	1829.8453
2150.3513	1859.4397
2151.3467	1832.6726
2152.342	1846.5782
2153.3372	1813.5554
2154.3325	1794.4801
2155.3279	1834.8356
2156.3232	1843.6107
2157.3186	1823.7977
2158.3137	1802.429
2159.3091	1837.9849
2160.3044	1832.0463
2161.2998	1830.0776
2162.2952	1808.5399
2163.2903	1818.8519
2164.2856	1819.8445
2165.281	1808.547
2166.2764	1822.036
2167.2717	1808.2827
2168.2671	1881.4132
2169.2622	1841.1686
2170.2576	1867.4922
2171.2529	1805.4446
2172.2483	1843.7731
2173.2437	1834.1509
2174.2388	1872.8982
2175.2341	1867.4874
2176.2295	1802.0037
2177.2249	1805.321
2178.2202	1840.3069
2179.2156	1827.0854
2180.2107	1832.7587
2181.2061	1850.0808
2182.2014	1861.6962
2183.1968	1851.2214
2184.1921	1879.7142
2185.1873	1868.9392
2186.1826	1892.7013
2187.178	1874.1215
2188.1733	1881.7941
2189.1687	1871.5718
2190.1638	1853.6167
2191.1592	1895.2848
2192.1545	1861.1425
2193.1499	1863.5613
2194.1453	1891.3704
2195.1406	1868.1102
2196.1357	1868.6541
2197.1311	1843.5288
2198.1265	1889.3967
2199.1218	1871.5544
2200.1172	1848.6348
2201.1123	1855.6167
2202.1077	1872.6926
2203.103	1894.0024
2204.0984	1902.88
2205.0938	1892.5527
2206.0891	1849.0374
2207.0842	1851.8932
2208.0796	1884.7959
2209.075	1868.5038
2210.0703	1880.6931
2211.0657	1841.3381
2212.0608	1895.5762
2213.0562	1883.1846
2214.0515	1879.2871
2215.0469	1926.1147
2216.0422	1932.173
2217.0374	1916.6129
2218.0327	1899.9757
2219.0281	1879.3351
2220.0234	1908.4883
2221.0188	1889.7141
2222.0142	1894.6964
2223.0093	1892.7543
2224.0046	1900.203
2225	1919.4612
2225.9954	1870.9907
2226.9907	1935.624
2227.9858	1937.0951
2228.9812	1892.7515
2229.9766	1933.7776
2230.9719	1938.3917
2231.9673	1924.4839
2232.9626	1915.2369
2233.9578	1933.578
2234.9531	1923.2549
2235.9485	1912.1816
2236.9438	1932.285
2237.9392	1955.3903
2238.9343	1932.0332
2239.9297	1957.0267
2240.925	1948.4832
2241.9204	1918.3674
2242.9158	1933.0824
2243.9109	1931.7917
2244.9063	1952.835
2245.9016	1953.6271
2246.897	1980.7344
2247.8923	1980.4622
2248.8877	1942.2373
2249.8828	1947.2482
2250.8782	1920.4637
2251.8735	1947.1833
2252.8689	1944.9589
2253.8643	1960.5885
2254.8594	1955.9373
2255.8547	1956.785
2256.8501	1951.3411
2257.8455	1942.3029
2258.8408	1963.5929
2259.8362	1962.8693
2260.8313	1976.3538
2261.8267	1970.228
2262.822	1969.5439
2263.8174	1961.3455
2264.8127	1974.5974
2265.8079	2011.0493
2266.8032	2012.4543
2267.7986	1991.1196
2268.7939	1980.6028
2269.7893	1989.9288
2270.7844	1987.141
2271.7798	1987.0408
2272.7751	1981.9448
2273.7705	2007.7671
2274.7659	2002.5514
2275.7612	1993.8026
2276.7563	1977.7953
2277.7517	1971.9222
2278.7471	2019.3884
2279.7424	2005.4659
2280.7378	2015.6986
2281.7329	2018.3799
2282.7283	2036.6316
2283.7236	2016.6484
2284.719	2003.9943
2285.7144	1995.4797
2286.7097	2012.9406
2287.7048	1999.0879
2288.7002	1970.9447
2289.6956	2004.4694
2290.6909	2016.4172
2291.6863	2007.1821
2292.6814	2000.3959
2293.6768	1975.6187
2294.6721	2005.2021
2295.6675	2063.4814
2296.6628	2019.0828
2297.658	2031.218
2298.6533	2085.1372
2299.6487	1951.8964
2300.644	2004.6115
2301.6394	2016.5438
2302.6348	2041.2865
2303.6299	2048.0359
2304.6252	2022.4198
2305.6206	2042.6783
2306.616	2058.7629
2307.6113	2045.5647
2308.6064	2018.9271
2309.6018	2023.0062
2310.5972	2064.1038
2311.5925	2081.8928
2312.5879	2018.635
2313.5833	2049.7979
2314.5784	2068.3352
2315.5737	2059.1157
2316.5691	2079.04
2317.5645	2043.0874
2318.5598	2080.4653
2319.5549	2077.9041
2320.5503	2074.8198
2321.5457	2068.6489
2322.541	2073.9592
2323.5364	2088.156
2324.5315	2088.856
2325.5269	2102.2021
2326.5222	2107.9744
2327.5176	2085.2661
2328.5129	2120.5984
2329.5083	2091.1282
2330.5034	2103.0386
2331.4988	2098.3115
2332.4941	2106.8289
2333.4895	2112.6646
2334.4849	2115.8193
2335.48	2102.9304
2336.4753	2141.1416
2337.4707	2128.4233
2338.4661	2124.9302
2339.4614	2110.3838
2340.4568	2128.9666
2341.4519	2118.2378
2342.4473	2081.8704
2343.4426	2113.0764
2344.438	2113.8918
2345.4333	2158.5132
2346.4285	2149.9453
2347.4238	2160.8508
2348.4192	2148.3782
2349.4146	2161.551
2350.4099	2157.3591
2351.4053	2186.7808
2352.4004	2129.48
2353.3958	2158.9441
2354.3911	2152.2041
2355.3865	2178.4492
2356.3818	2189.3604
2357.377	2153.3264
2358.3723	2219.0669
2359.3677	2159.2063
2360.363	2185.5513
2361.3584	2133.3965
2362.3535	2155.676
2363.3489	2174.9419
2364.3442	2183.8696
2365.3396	2181.7678
2366.335	2161.448
2367.3303	2190.0022
2368.3254	2213.0864
2369.3208	2203.8608
2370.3162	2172.6882
2371.3115	2173.322
2372.3069	2206.9844
2373.302	2196.8306
2374.2974	2186.1521
2375.2927	2153.7451
2376.2881	2164.6218
2377.2834	2151.655
2378.2788	2188.7612
2379.2739	2205.5596
2380.2693	2201.3376
2381.2646	2218.707
2382.26	2199.0732
2383.2554	2184.7686
2384.2505	2206.2756
2385.2458	2233.3774
2386.2412	2270.8079
2387.2366	2233.0723
2388.2319	2195.1494
2389.2271	2215.0083
2390.2224	2229.593
2391.2178	2211.0901
2392.2131	2229.8354
2393.2085	2222.9614
2394.2039	2182.7271
2395.199	2209.4663
2396.1943	2250.8689
2397.1897	2228.8694
2398.1851	2244.6042
2399.1804	2248.4719
2400.1755	2241.5369
2401.1709	2219.9856
2402.1663	2241.0581
2403.1616	2309.8572
2404.157	2235.5635
2405.1523	2278.6797
2406.1475	2281.959
2407.1428	2302.6675
2408.1382	2255.3345
2409.1335	2217.676
2410.1289	2267.2354
2411.124	2283.427
2412.1194	2301.5022
2413.1147	2262.7471
2414.1101	2276.0198
2415.1055	2270.4431
2416.1006	2268.9065
2417.0959	2277.6758
2418.0913	2305.9395
2419.0867	2300.7209
2420.082	2262.3635
2421.0774	2292.1384
2422.0725	2331.3745
2423.0679	2276.8313
2424.0632	2264.8345
2425.0586	2317.0828
2426.054	2240.749
2427.0491	2324.8555
2428.0444	2316.3584
2429.0398	2307.6653
2430.0352	2335.4739
2431.0305	2344.2092
2432.0259	2340.5437
2433.021	2326.7595
2434.0164	2323.897
2435.0117	2306.3071
2436.0071	2276.7961
2437.0024	2353.4922
2437.9976	2365.7463
2438.9929	2343.5344
2439.9883	2326.634
2440.9836	2353.7251
2441.979	2413.0405
2442.9741	2392.3044
2443.9695	2358.4048
2444.9648	2375.1355
2445.9602	2410.6414
2446.9556	2370.4382
2447.9509	2358.6846
2448.946	2421.4133
2449.9414	2388.1238
2450.9368	2352.0481
2451.9321	2419.0583
2452.9275	2436.2561
2453.9226	2399.2012
2454.918	2425.4348
2455.9133	2415.053
2456.9087	2412.6165
2457.9041	2403.573
2458.8994	2443.8196
2459.8945	2413.5239
2460.8899	2397.0742
2461.8853	2410.043
2462.8806	2438.594
2463.876	2405.0911
2464.8711	2417.4043
2465.8665	2424.4536
2466.8618	2416.0034
2467.8572	2445.4165
2468.8525	2466.8301
2469.8477	2457.5598
2470.843	2462.9587
2471.8384	2476.9426
2472.8337	2406.6753
2473.8291	2496.1677
2474.8245	2442.5076
2475.8196	2465.958
2476.8149	2497.0701
2477.8103	2459.4255
2478.8057	2450.4041
2479.801	2469.8533
2480.7961	2502.0159
2481.7915	2504.1052
2482.7869	2452.0977
2483.7822	2537.2451
2484.7776	2463.8413
2485.7729	2491.2314
2486.7681	2469.5266
2487.7634	2459.2949
2488.7588	2461.0276
2489.7542	2501.6621
2490.7495	2516.2051
2491.7446	2512.666
2492.74	2519.9119
2493.7354	2462.1736
2494.7307	2507.1272
2495.7261	2504.4058
2496.7212	2503.1086
2497.7166	2536.6411
2498.7119	2527.9849
2499.7073	2548.1526
2500.7026	2521.3657
2501.698	2534.0356
2502.6931	2508.7422
2503.6885	2461.0215
2504.6838	2539.3557
2505.6792	2536.7822
2506.6746	2505.6875
2507.6697	2491.4758
2508.665	2507.522
2509.6604	2556.3513
2510.6558	2524.6365
2511.6511	2538.2368
2512.6465	2552.145
2513.6416	2558.4055
2514.637	2584.3665
2515.6323	2543.7302
2516.6277	2556.7815
2517.623	2589.2175
2518.6182	2593.582
2519.6135	2562.8093
2520.6089	2580.3508
2521.6042	2566.2046
2522.5996	2567.1733
2523.5947	2581.4038
2524.5901	2565.9631
2525.5854	2627.0229
2526.5808	2609.8115
2527.5762	2614.7844
2528.5715	2535.2358
2529.5667	2572.0508
2530.562	2611.2246
2531.5574	2607.2883
2532.5527	2606.4009
2533.5481	2654.822
2534.5432	2652.8438
2535.5386	2638.5742
2536.5339	2656.4863
2537.5293	2672.5886
2538.5247	2644.8162
2539.52	2680.2275
2540.5151	2668.3044
2541.5105	2674.0798
2542.5059	2650.2136
2543.5012	2629.4968
2544.4966	2699.6721
2545.4917	2663.2849
2546.4871	2715.2214
2547.4824	2655.8931
2548.4778	2687.0833
2549.4731	2688.7312
2550.4685	2730.1892
2551.4636	2702.5532
2552.459	2741.0659
2553.4543	2740.0396
2554.4497	2700.157
2555.4451	2729.7834
2556.4402	2738.9917
2557.4355	2710.7161
2558.4309	2744.637
2559.4263	2799.4485
2560.4216	2799.2832
2561.4167	2832.2075
2562.4121	2868.4968
2563.4075	2843.2249
2564.4028	2808.8096
2565.3982	2847.8984
2566.3936	2839.6113
2567.3887	2804.8459
2568.384	2826.7266
2569.3794	2866.52
2570.3748	2868.823
2571.3701	2872.2153
2572.3652	2886.0718
2573.3606	2920.0635
2574.356	2915.0762
2575.3513	2988.5037
2576.3467	2981.4502
2577.342	2925.7024
2578.3372	2960.3052
2579.3325	2996.8289
2580.3279	3021.8857
2581.3232	3042.0471
2582.3186	2987.3557
2583.3137	3045.8184
2584.3091	3111.5793
2585.3044	3078.9497
2586.2998	3063.5757
2587.2952	3116.533
2588.2903	3101.0681
2589.2856	3128.0129
2590.281	3210.7236
2591.2764	3231.2219
2592.2717	3167.3667
2593.2671	3177.5154
2594.2622	3277.2217
2595.2576	3265.9087
2596.2529	3263.406
2597.2483	3203.4478
2598.2437	3259.8999
2599.2388	3299.9431
2600.2341	3354.0762
2601.2295	3363.0374
2602.2249	3361.5188
2603.2202	3350.0493
2604.2156	3385.5632
2605.2107	3421.4321
2606.2061	3458.781
2607.2014	3497.8137
2608.1968	3495.0667
2609.1921	3533.7395
2610.1873	3550.0735
2611.1826	3545.4419
2612.178	3567.9563
2613.1733	3664.2839
2614.1687	3602.9412
2615.1638	3624.8838
2616.1592	3711.2559
2617.1545	3697.8513
2618.1499	3723.5359
2619.1453	3724.72
2620.1406	3732.551
2621.1357	3756.2051
2622.1311	3807.2847
2623.1265	3873.2822
2624.1218	3923.1399
2625.1172	3866.085
2626.1123	3875.9873
2627.1077	3993.2361
2628.103	3969.4473
2629.0984	3993.3159
2630.0938	4020.0686
2631.0891	3987.896
2632.0842	4060.1611
2633.0796	4034.4399
2634.075	4055.3972
2635.0703	4069.1768
2636.0657	4079.2461
2637.0608	4046.8235
2638.0562	4058.8044
2639.0515	4132.8052
2640.0469	4091.2412
2641.0422	4091.5139
2642.0374	4128.998
2643.0327	4120.501
2644.0281	4112.2075
2645.0234	4114.5479
2646.0188	4129.3062
2647.0142	4084.2615
2648.0093	4088.1868
2649.0046	4108.624
2650	4099.168
2650.9954	4051.4468
2651.9907	4164.9316
2652.9858	3927.7
2653.9812	3927.7
2654.9766	4081.7373
2655.9719	4028.0496
2656.9673	4004.7805
2657.9626	3987.1409
2658.9578	3996.6289
2659.9531	3983.1697
2660.9485	3982.584
2661.9438	3947.1218
2662.9392	3851.0076
2663.9343	3879.0928
2664.9297	3843.655
2665.925	3833.9109
2666.9204	3805.1599
2667.9158	3773.8416
2668.9109	3744.0303
2669.9063	3750.7209
2670.9016	3717.7275
2671.897	3706.9407
2672.8923	3636.2759
2673.8877	3620.7246
2674.8828	3633.8657
2675.8782	3621.4934
2676.8735	3577.4087
2677.8689	3563.9448
2678.8643	3548.2991
2679.8594	3589.0332
2680.8547	3543.4612
2681.8501	3495.3579
2682.8455	3451.8896
2683.8408	3429.718
2684.8362	3449.6709
2685.8313	3448.7737
2686.8267	3398.6521
2687.822	3404.7302
2688.8174	3338.8884
2689.8127	3330.7576
2690.8079	3299.1545
2691.8032	3278.249
2692.7986	3279.3628
2693.7939	3257.9944
2694.7893	3278.6555
2695.7844	3250.9883
2696.7798	3227.9651
2697.7751	3278.9719
2698.7705	3233.113
2699.7659	3231.8958
2700.7612	3200.8467
2701.7563	3158.613
2702.7517	3170.0896
2703.7471	3235.5425
2704.7424	3181.6431
2705.7378	3182.7649
2706.7329	3175.9246
2707.7283	3131.3806
2708.7236	3133.6287
2709.719	3160.8557
2710.7144	3065.8391
2711.7097	3130.6814
2712.7048	3105.9961
2713.7002	3079.1653
2714.6956	3072.3721
2715.6909	3105.2212
2716.6863	3061.9626
2717.6814	3035.1421
2718.6768	3088.8369
2719.6721	3058.8889
2720.6675	3040.9182
2721.6628	3033.1655
2722.658	3040.5359
2723.6533	3017.0754
2724.6487	3020.8567
2725.644	3009.7502
2726.6394	3007.7888
2727.6348	3034.2559
2728.6299	3050.9812
2729.6252	2986.074
2730.6206	2993.3354
2731.616	3042.5925
2732.6113	3022.8567
2733.6064	3058.5698
2734.6018	2966.1951
2735.5972	2981.0273
2736.5925	2994.7163
2737.5879	2973.4348
2738.5833	2991.884
2739.5784	2972.7856
2740.5737	2980.9165
2741.5691	2940.0728
2742.5645	2943.916
2743.5598	2975.699
2744.5549	2948.3564
2745.5503	2930.4956
2746.5457	2917.0894
2747.541	2943.7021
2748.5364	3002.0186
2749.5315	2984.9893
2750.5269	2904.7493
2751.5222	2925.1008
2752.5176	2922.5002
2753.5129	2931.7356
2754.5083	2907.5845
2755.5034	2899.0366
2756.4988	2973.3149
2757.4941	2913.3459
2758.4895	2958.6926
2759.4849	2966.9575
2760.48	2917.592
2761.4753	2913.9536
2762.4707	2903.1465
2763.4661	2919.9517
2764.4614	2902.8665
2765.4568	2947.6187
2766.4519	2924.8374
2767.4473	2920.2563
2768.4426	2939.8892
2769.438	2951.0259
2770.4333	2921.3779
2771.4285	2937.1155
2772.4238	2922.4583
2773.4192	2939.3723
2774.4146	2910.3562
2775.4099	2951.8647
2776.4053	2916.1794
2777.4004	2951.4829
2778.3958	2956.5254
2779.3911	2935.8408
2780.3865	2918.9058
2781.3818	2904.0615
2782.377	2938.5825
2783.3723	2930.3052
2784.3677	2882.1785
2785.363	2916.4741
2786.3584	2901.6018
2787.3535	2904.0093
2788.3489	2922.533
2789.3442	2959.4863
2790.3396	2909.9746
2791.335	2872.5417
2792.3303	2897.3682
2793.3254	2914.0481
2794.3208	2956.5105
2795.3162	2932.7852
2796.3115	2955.9587
2797.3069	2893.5325
2798.302	2947.7563
2799.2974	2932.1697
2800.2927	2931.7417
2801.2881	2934.7593
2802.2834	2900.5371
2803.2788	2893.5459
2804.2739	2945.3137
2805.2693	2971.0432
2806.2646	2984.5959
2807.26	2946.0557
2808.2554	2917.478
2809.2505	2962.4653
2810.2458	2956.6882
2811.2412	2962.7825
2812.2366	2941.5723
2813.2319	2951.3804
2814.2271	2915.9783
2815.2224	2915.3394
2816.2178	2962.1509
2817.2131	2912.4661
2818.2085	2901.0959
2819.2039	2900.5178
2820.199	2963.5605
2821.1943	2987.5688
2822.1897	3028.5715
2823.1851	3006.458
2824.1804	2965.1516
2825.1755	2977.387
2826.1709	2958.0408
2827.1663	3005.6699
2828.1616	2954.9004
2829.157	2924.1384
2830.1523	2954.2451
2831.1475	2919.3618
2832.1428	2956.1509
2833.1382	2973.082
2834.1335	2997.2117
2835.1289	2959.134
2836.124	2936.2317
2837.1194	2935.8633
2838.1147	2986.6956
2839.1101	3001.6494
2840.1055	2977.6997
2841.1006	2989.1716
2842.0959	2947.6113
2843.0913	2960.9197
2844.0867	2990.437
2845.082	2994.1047
2846.0774	2961.9258
2847.0725	2995.2588
2848.0679	2982.4255
2849.0632	2983.0205
2850.0586	2982.7866
2851.054	3019.9385
2852.0491	3017.6021
2853.0444	2989.3662
2854.0398	2951.0649
2855.0352	2954.1797
2856.0305	2976.9822
2857.0259	2976.4509
2858.021	3040.4714
2859.0164	3034.3474
2860.0117	3037.0161
2861.0071	3002.3445
2862.0024	3002.4634
2862.9976	2994.3103
2863.9929	3009.9521
2864.9883	3010.5771
2865.9836	2985.0732
2866.979	2992.4377
2867.9741	3021.8667
2868.9695	3037.0581
2869.9648	3004.7959
2870.9602	3024.989
2871.9556	3033.1211
2872.9509	3001.7219
2873.946	3034.4607
2874.9414	3023.1873
2875.9368	3048.4875
2876.9321	3110.9866
2877.9275	3061.3936
2878.9226	3025.4207
2879.918	3028.071
2880.9133	3084.5886
2881.9087	3072.8064
2882.9041	3057.7729
2883.8994	3071.5015
2884.8945	3073.0354
2885.8899	3054.8848
2886.8853	3078.947
2887.8806	3139.7
2888.876	3099.7231
2889.8711	3091.6616
2890.8665	3106.323
2891.8618	3137.9058
2892.8572	3109.5898
2893.8525	3116.218
2894.8477	3052.4658
2895.843	3117.0066
2896.8384	3104.7566
2897.8337	3131.8281
2898.8291	3113.1865
2899.8245	3112.3564
2900.8196	3112.2378
2901.8149	3134.5085
2902.8103	3123.8403
2903.8057	3118.9526
2904.801	3105.5652
2905.7961	3133.8115
2906.7915	3110.4653
2907.7869	3107.7927
2908.7822	3087.7722
2909.7776	3100.3853
2910.7729	3094.7058
2911.7681	3098.2913
2912.7634	3158.9927
2913.7588	3168.0322
2914.7542	3134.0166
2915.7495	3117.5549
2916.7446	3119.9446
2917.74	3080.7463
2918.7354	3067.9216
2919.7307	3084.5295
2920.7261	3108.7654
2921.7212	3105.3909
2922.7166	3117.5371
2923.7119	3149.4988
2924.7073	3128.0193
2925.7026	3113.6208
2926.698	3083.135
2927.6931	3076.9063
2928.6885	3096.0427
2929.6838	3079.4458
2930.6792	3123.5273
2931.6746	3076.6199
2932.6697	3084.7266
2933.665	3100.6125
2934.6604	3085.8098
2935.6558	3095.6362
2936.6511	3102.928
2937.6465	3014.8179
2938.6416	3046.5876
2939.637	3035.8003
2940.6323	3045.3809
2941.6277	3066.4297
2942.623	3085.1472
2943.6182	3068.1882
2944.6135	3057.3977
2945.6089	3095.572
2946.6042	3037.5396
2947.5996	3001.2454
2948.5947	3066.9548
2949.5901	3027.5999
2950.5854	3035.0295
2951.5808	3022.9871
2952.5762	3017.3757
2953.5715	3013.7954
2954.5667	3092.1255
2955.562	2972.5417
2956.5574	2973.3271
2957.5527	2989.0315
2958.5481	3052.3406
2959.5432	3066.6609
2960.5386	3012.8196
2961.5339	3007.2695
2962.5293	3029.1389
2963.5247	3018.6101
2964.52	3041.4653
2965.5151	2993.0471
2966.5105	3026.5789
2967.5059	3012.1584
2968.5012	2981.6812
2969.4966	2971.6008
2970.4917	3069.8645
2971.4871	2996.5288
2972.4824	3050.3745
2973.4778	3017.9412
2974.4731	2968.9663
2975.4685	3011.7556
2976.4636	2991.8291
2977.459	3016.2773
2978.4543	2956.248
2979.4497	2956.9678
2980.4451	3013.5696
2981.4402	2901.9106
2982.4355	3004.073
2983.4309	3026.7202
2984.4263	2965.252
2985.4216	2951.2678
2986.4167	2965.3457
2987.4121	3019.7598
2988.4075	2970.0723
2989.4028	2988.5012
2990.3982	3026.1487
2991.3936	2968.0664
2992.3887	2971.6143
2993.384	3048.6597
2994.3794	2994.3284
2995.3748	2989.4377
2996.3701	2983.4158
2997.3652	2972.085
2998.3606	3005.1123
2999.356	2991.5493
3000.3513	2965.2151
3001.3467	2971.2158
3002.342	2938.6462
3003.3372	2954.1895
3004.3325	2957.2434
3005.3279	2998.6812
3006.3232	3006.6458
3007.3186	2988.2546
3008.3137	2994.5869
3009.3091	2960.7698
3010.3044	2965.7209
3011.2998	2994.5771
3012.2952	2961.0635
3013.2903	2968.1816
3014.2856	3014.6201
3015.281	2954.9045
3016.2764	2958.1956
3017.2717	2958.2007
3018.2671	2986.2573
3019.2622	2911.4136
3020.2576	3015.0173
3021.2529	2957.8865
3022.2483	2981.4373
3023.2437	3040.4006
3024.2388	3067.7107
3025.2341	2978.3689
3026.2295	2963.5923
3027.2249	2981.9541
3028.2202	3020.6414
3029.2156	2985.4451
3030.2107	3009.8875
3031.2061	2985.5012
3032.2014	2999.989
3033.1968	2995.4231
3034.1921	3025.5376
3035.1873	2955.2383
3036.1826	2958.6501
3037.178	2989.0015
3038.1733	2993.4084
3039.1687	2971.5571
3040.1638	3034.2319
3041.1592	2996.908
3042.1545	2973.2222
3043.1499	2958.1328
3044.1453	2957.3342
3045.1406	3010.9089
3046.1357	2963.7727
3047.1311	2996.9419
3048.1265	2982.0549
3049.1218	3003.0813
3050.1172	3033.9551
3051.1123	3027.5125
3052.1077	3008.9146
3053.103	3037.2305
3054.0984	3039.0393
3055.0938	3000.217
3056.0891	2976.479
3057.0842	2994.4211
3058.0796	3018.5537
3059.075	3042.5183
3060.0703	3029.7561
3061.0657	3015.5554
3062.0608	2991.1123
3063.0562	3066.5745
3064.0515	3038.23
3065.0469	3055.3657
3066.0422	3007.1624
3067.0374	3025.0212
3068.0327	3055.8831
3069.0281	3006.4629
3070.0234	3082.491
3071.0188	3054.2625
3072.0142	2995.6804
3073.0093	3073.0247
3074.0046	2995.6375
3075	3076.5693
3075.9954	3087.9617
3076.9907	3027.6123
3077.9858	3088.0073
3078.9812	3062.3918
3079.9766	3004.395
3080.9719	2978.3508
3081.9673	3047.2192
3082.9626	3030.2791
3083.9578	3040.78
3084.9531	3074.376
3085.9485	3060.9905
3086.9438	3020.1167
3087.9392	3072.2546
3088.9343	3099.8071
3089.9297	3075.4795
3090.925	3041.3506
3091.9204	3069.4102
3092.9158	3077.323
3093.9109	3060.6296
3094.9063	3076.9883
3095.9016	3124.4072
3096.897	3095.8848
3097.8923	3128.7627
3098.8877	3099.6882
3099.8828	3097.0217
3100.8782	3097.3713
3101.8735	3071.1038
3102.8689	3076.5913
3103.8643	3122.7585
3104.8594	3046.3127
3105.8547	3136.5811
3106.8501	3119.4419
3107.8455	3049.1726
3108.8408	3083.0417
3109.8362	3126.031
3110.8313	3127.801
3111.8267	3111.1814
3112.822	3089.7571
3113.8174	3065.9248
3114.8127	3086.2854
3115.8079	3096.875
3116.8032	3109.1426
3117.7986	3072.2927
3118.7939	3137.6279
3119.7893	3094.6423
3120.7844	3088.4634
3121.7798	3086.8176
3122.7751	3097.7253
3123.7705	3107.1357
3124.7659	3126.4858
3125.7612	3100.228
3126.7563	3110.9507
3127.7517	3095.1809
3128.7471	3098.1917
3129.7424	3106.1147
3130.7378	3091.842
3131.7329	3137.0061
3132.7283	3139.5796
3133.7236	3106.155
3134.719	3106.0833
3135.7144	3123.0347
3136.7097	3099.699
3137.7048	3129.4348
3138.7002	3072.8535
3139.6956	3152.7178
3140.6909	3139.9792
3141.6863	3149.3269
3142.6814	3125.6096
3143.6768	3110.9397
3144.6721	3118.7407
3145.6675	3145.7612
3146.6628	3182.5864
3147.658	3147.698
3148.6533	3130.7021
3149.6487	3148.1523
3150.644	3162.3784
3151.6394	3121.6465
3152.6348	3156.2493
3153.6299	3127.3086
3154.6252	3126.2354
3155.6206	3113.4724
3156.616	3141.2749
3157.6113	3164.6311
3158.6064	3169.3135
3159.6018	3154.1648
3160.5972	3102.0552
3161.5925	3206.1626
3162.5879	3178.2119
3163.5833	3143.4534
3164.5784	3133.5222
3165.5737	3192.2585
3166.5691	3179.2344
3167.5645	3124.0247
3168.5598	3161.7791
3169.5549	3216.9172
3170.5503	3188.9592
3171.5457	3182.9297
3172.541	3163.52
3173.5364	3217.5867
3174.5315	3174.2939
3175.5269	3214.4219
3176.5222	3178.8638
3177.5176	3205.6833
3178.5129	3239.1333
3179.5083	3231.8748
3180.5034	3165.1909
3181.4988	3240.2937
3182.4941	3188.7678
3183.4895	3197.405
3184.4849	3170.0623
3185.48	3198.9851
3186.4753	3200.5796
3187.4707	3242.051
3188.4661	3248.7766
3189.4614	3201.9128
3190.4568	3255.6733
3191.4519	3231.6421
3192.4473	3210.5427
3193.4426	3227.1267
3194.438	3311.6384
3195.4333	3217.1748
3196.4285	3265.6641
3197.4238	3294.772
3198.4192	3271.3652
3199.4146	3249.8306
3200.4099	3226.613
3201.4053	3271.2439
3202.4004	3270.1487
3203.3958	3274.7598
3204.3911	3277.168
3205.3865	3262.8428
3206.3818	3263.7344
3207.377	3252.7456
3208.3723	3287.0662
3209.3677	3294.3032
3210.363	3255.4038
3211.3584	3283.2375
3212.3535	3274.9395
3213.3489	3269.9941
3214.3442	3235.2952
3215.3396	3287.6467
3216.335	3339.7764
3217.3303	3307.0854
3218.3254	3299.8169
3219.3208	3289.0317
3220.3162	3321.1328
3221.3115	3250.885
3222.3069	3282.2668
3223.302	3288.5713
3224.2974	3304.1572
3225.2927	3281.106
3226.2881	3286.1255
3227.2834	3255.9934
3228.2788	3269.9421
3229.2739	3280.6128
3230.2693	3247.6245
3231.2646	3303.6565
3232.26	3274.8601
3233.2554	3256.4797
3234.2505	3272.2588
3235.2458	3267.4517
3236.2412	3260.5908
3237.2366	3338.6965
3238.2319	3248.3333
3239.2271	3261.6353
3240.2224	3277.1611
3241.2178	3229.324
3242.2131	3211.9199
3243.2085	3259.0486
3244.2039	3264.4434
3245.199	3290.1128
3246.1943	3267.457
3247.1897	3259.4072
3248.1851	3257.3904
3249.1804	3266.0029
3250.1755	3266.99
3251.1709	3263.5925
3252.1663	3261.7568
3253.1616	3262.9717
3254.157	3285.2117
3255.1523	3237.3091
3256.1475	3252.2656
3257.1428	3250.7527
3258.1382	3218.8628
3259.1335	3256.2849
3260.1289	3228.5081
3261.124	3216.1797
3262.1194	3218.1196
3263.1147	3239.2405
3264.1101	3270.7473
3265.1055	3241.7168
3266.1006	3285.2813
3267.0959	3254.1587
3268.0913	3313.5068
3269.0867	3299.2639
3270.082	3253.5063
3271.0774	3247.2942
3272.0725	3260.8008
3273.0679	3294.1677
3274.0632	3263.842
3275.0586	3259.7754
3276.054	3260.6821
3277.0491	3246.4622
3278.0444	3230.9197
3279.0398	3262.3145
3280.0352	3250.4324
3281.0305	3288.7239
3282.0259	3302.5044
3283.021	3288.9473
3284.0164	3253.9399
3285.0117	3258.0286
3286.0071	3263.9512
3287.0024	3316.9385
3287.9976	3269.2998
3288.9929	3304.6855
3289.9883	3305.2703
3290.9836	3344.947
3291.979	3283.3411
3292.9741	3257.9365
3293.9695	3246.1182
3294.9648	3275.0786
3295.9602	3283.6289
3296.9556	3268.9885
3297.9509	3276.8628
3298.946	3281.6138
3299.9414	3321.2495
3300.9368	3259.0417
3301.9321	3336.0554
3302.9275	3328.333
3303.9226	3295.1003
3304.918	3316.7632
3305.9133	3313.9709
3306.9087	3293.5308
3307.9041	3266.8345
3308.8994	3313.2529
3309.8945	3364.019
3310.8899	3350.1802
3311.8853	3299.5823
3312.8806	3389.1433
3313.876	3304.6133
3314.8711	3366.7283
3315.8665	3333.5898
3316.8618	3270.9563
3317.8572	3306.092
3318.8525	3326.2173
3319.8477	3275.635
3320.843	3349.3098
3321.8384	3334.7104
3322.8337	3367.2588
3323.8291	3398.0603
3324.8245	3397.4182
3325.8196	3379.5417
3326.8149	3382.8767
3327.8103	3412.137
3328.8057	3374.2769
3329.801	3367.1697
3330.7961	3378.8342
3331.7915	3381.0359
3332.7869	3414.426
3333.7822	3400.344
3334.7776	3385.1848
3335.7729	3322.47
3336.7681	3411.7273
3337.7634	3405.8838
3338.7588	3422.6748
3339.7542	3370.1958
3340.7495	3385.9675
3341.7446	3385.4048
3342.74	3348.8171
3343.7354	3423.6416
3344.7307	3481.8613
3345.7261	3378.0933
3346.7212	3371.0696
3347.7166	3393.2563
3348.7119	3409.9961
3349.7073	3355.2002
3350.7026	3370.7952
3351.698	3420.1375
3352.6931	3365.7317
3353.6885	3408.8784
3354.6838	3428.7622
3355.6792	3416.5232
3356.6746	3417.5681
3357.6697	3384.1958
3358.665	3399.8691
3359.6604	3425.9238
3360.6558	3406.1001
3361.6511	3414.5417
3362.6465	3397.0271
3363.6416	3411.2144
3364.637	3396.5908
3365.6323	3425.6072
3366.6277	3454.7451
3367.623	3364.4143
3368.6182	3442.0452
3369.6135	3444.3342
3370.6089	3474.9897
3371.6042	3416.0432
3372.5996	3355.0923
3373.5947	3423.0562
3374.5901	3437.1946
3375.5854	3367.4829
3376.5808	3369.665
3377.5762	3396.2231
3378.5715	3459.2734
3379.5667	3468.958
3380.562	3438.9163
3381.5574	3432.6836
3382.5527	3445.5918
3383.5481	3461.4827
3384.5432	3442.8035
3385.5386	3498.3301
3386.5339	3440.3921
3387.5293	3452.7122
3388.5247	3468.9744
3389.52	3419.47
3390.5151	3492.5168
3391.5105	3429.0659
3392.5059	3433.4634
3393.5012	3449.324
3394.4966	3594.2029
3395.4917	3412.4758
3396.4871	3421.6956
3397.4824	3427.6174
3398.4778	3500.0093
3399.4731	3516.574
3400.4685	3466.8274
3401.4636	3430.4941
3402.459	3410.4268
3403.4543	3439.231
3404.4497	3450.3833
3405.4451	3505.969
3406.4402	3444.4021
3407.4355	3468.7588
3408.4309	3452.1165
3409.4263	3493.605
3410.4216	3469.1011
3411.4167	3481.1455
3412.4121	3448.3789
3413.4075	3502.6975
3414.4028	3441.946
3415.3982	3461.6042
3416.3936	3489.3638
3417.3887	3470.0803
3418.384	3502.7266
3419.3794	3492.9773
3420.3748	3461.3523
3421.3701	3496.5056
3422.3652	3511.1914
3423.3606	3524.2756
3424.356	3479.7141
3425.3513	3432.3503
3426.3467	3507.3577
3427.342	3557.2656
3428.3372	3483.7454
3429.3325	3489.356
3430.3279	3493.4983
3431.3232	3510.0667
3432.3186	3524.5898
3433.3137	3556.1091
3434.3091	3506.4788
3435.3044	3500.6787
3436.2998	3448.9341
3437.2952	3473.5703
3438.2903	3476.0769
3439.2856	3530.5955
3440.281	3529.7141
3441.2764	3496.9072
3442.2717	3540.7869
3443.2671	3534.2969
3444.2622	3557.4197
3445.2576	3543.3367
3446.2529	3563.4768
3447.2483	3505.1406
3448.2437	3518.6257
3449.2388	3528.9004
3450.2341	3533.196
3451.2295	3549.2974
3452.2249	3590.2351
3453.2202	3572.728
3454.2156	3532.3193
3455.2107	3536.5576
3456.2061	3695.2039
3457.2014	3525.7002
3458.1968	3579.123
3459.1921	3598.4019
3460.1873	3593.9937
3461.1826	3563.428
3462.178	3534.9155
3463.1733	3574.9478
3464.1687	3559.9338
3465.1638	3506.1052
3466.1592	3583.8293
3467.1545	3634.3647
3468.1499	3487.8071
3469.1453	3543.3926
3470.1406	3576.9214
3471.1357	3550.1692
3472.1311	3521.7478
3473.1265	3594.7793
3474.1218	3535.7251
3475.1172	3617.3125
3476.1123	3603.72
3477.1077	3610.4365
3478.103	3582.425
3479.0984	3582.8103
3480.0938	3599.5667
3481.0891	3578.0867
3482.0842	3582.0872
3483.0796	3580.7034
3484.075	3576.0337
3485.0703	3556.7939
3486.0657	3530.4126
3487.0608	3594.5452
3488.0562	3584.5728
3489.0515	3572.2715
3490.0469	3537.5613
3491.0422	3559.4136
3492.0374	3583.7395
3493.0327	3626.1516
3494.0281	3614.571
3495.0234	3596.2295
3496.0188	3555.5994
3497.0142	3655.1348
3498.0093	3569.2087
3499.0046	3585.2737
3500	3625.824
